'Elapsed time','ECG1'
'seconds','mV'
0.000,-0.040
0.004,-0.055
0.008,-0.060
0.012,-0.040
0.016,-0.030
0.020,-0.025
0.024,-0.040
0.028,-0.045
0.032,-0.045
0.036,-0.030
0.040,-0.040
0.044,-0.040
0.048,-0.030
0.052,-0.020
0.056,-0.010
0.060,-0.040
0.064,-0.010
0.068,-0.035
0.072,-0.045
0.076,-0.060
0.080,-0.045
0.084,-0.060
0.088,-0.040
0.092,-0.040
0.096,-0.010
0.100,-0.030
0.104,-0.035
0.108,-0.040
0.112,-0.035
0.116,-0.055
0.120,-0.055
0.124,-0.055
0.128,-0.055
0.132,-0.045
0.136,-0.035
0.140,-0.030
0.144,-0.035
0.148,-0.045
0.152,-0.055
0.156,-0.060
0.160,-0.060
0.164,-0.050
0.168,-0.055
0.172,-0.050
0.176,-0.065
0.180,-0.060
0.184,-0.060
0.188,-0.065
0.192,-0.050
0.196,-0.045
0.200,-0.050
0.204,-0.050
0.208,-0.045
0.212,-0.045
0.216,-0.050
0.220,-0.025
0.224,-0.060
0.228,-0.045
0.232,-0.030
0.236,-0.050
0.240,-0.060
0.244,-0.055
0.248,-0.060
0.252,-0.050
0.256,-0.050
0.260,-0.055
0.264,-0.050
0.268,-0.040
0.272,-0.055
0.276,-0.055
0.280,-0.065
0.284,-0.040
0.288,-0.070
0.292,-0.045
0.296,-0.065
0.300,-0.065
0.304,-0.075
0.308,-0.070
0.312,-0.095
0.316,-0.095
0.320,-0.080
0.324,-0.110
0.328,-0.105
0.332,-0.115
0.336,-0.110
0.340,-0.110
0.344,-0.070
0.348,-0.100
0.352,-0.090
0.356,-0.120
0.360,-0.115
0.364,-0.100
0.368,-0.100
0.372,-0.080
0.376,-0.085
0.380,-0.075
0.384,-0.070
0.388,-0.075
0.392,-0.060
0.396,-0.005
0.400,0.010
0.404,0.055
0.408,0.100
0.412,0.200
0.416,0.230
0.420,0.220
0.424,0.110
0.428,-0.025
0.432,-0.300
0.436,-0.615
0.440,-0.770
0.444,-0.795
0.448,-0.685
0.452,-0.530
0.456,-0.365
0.460,-0.220
0.464,-0.120
0.468,-0.105
0.472,-0.095
0.476,-0.055
0.480,-0.065
0.484,-0.080
0.488,-0.060
0.492,-0.025
0.496,-0.060
0.500,-0.050
0.504,-0.055
0.508,-0.040
0.512,-0.050
0.516,-0.060
0.520,-0.065
0.524,-0.060
0.528,-0.060
0.532,-0.075
0.536,-0.050
0.540,-0.050
0.544,-0.060
0.548,-0.045
0.552,-0.050
0.556,-0.040
0.560,-0.040
0.564,-0.060
0.568,-0.050
0.572,-0.050
0.576,-0.030
0.580,-0.025
0.584,-0.050
0.588,-0.020
0.592,-0.025
0.596,-0.020
0.600,-0.010
0.604,-0.020
0.608,-0.030
0.612,-0.020
0.616,0.005
0.620,-0.015
0.624,-0.020
0.628,-0.010
0.632,0.000
0.636,-0.020
0.640,-0.010
0.644,-0.015
0.648,-0.040
0.652,-0.040
0.656,-0.025
0.660,-0.030
0.664,-0.035
0.668,-0.030
0.672,-0.040
0.676,-0.020
0.680,-0.030
0.684,-0.040
0.688,-0.035
0.692,-0.030
0.696,-0.035
0.700,-0.025
0.704,-0.035
0.708,-0.045
0.712,-0.030
0.716,-0.050
0.720,-0.060
0.724,-0.080
0.728,-0.080
0.732,-0.070
0.736,-0.060
0.740,-0.070
0.744,-0.070
0.748,-0.070
0.752,-0.095
0.756,-0.080
0.760,-0.085
0.764,-0.090
0.768,-0.090
0.772,-0.110
0.776,-0.095
0.780,-0.090
0.784,-0.075
0.788,-0.080
0.792,-0.100
0.796,-0.095
0.800,-0.085
0.804,-0.095
0.808,-0.060
0.812,-0.095
0.816,-0.075
0.820,-0.090
0.824,-0.070
0.828,-0.080
0.832,-0.075
0.836,-0.075
0.840,-0.060
0.844,-0.060
0.848,-0.080
0.852,-0.070
0.856,-0.090
0.860,-0.065
0.864,-0.070
0.868,-0.070
0.872,-0.070
0.876,-0.070
0.880,-0.080
0.884,-0.060
0.888,-0.065
0.892,-0.085
0.896,-0.065
0.900,-0.080
0.904,-0.075
0.908,-0.080
0.912,-0.085
0.916,-0.075
0.920,-0.085
0.924,-0.075
0.928,-0.065
0.932,-0.065
0.936,-0.080
0.940,-0.070
0.944,-0.080
0.948,-0.070
0.952,-0.070
0.956,-0.075
0.960,-0.060
0.964,-0.035
0.968,-0.050
0.972,-0.080
0.976,-0.065
0.980,-0.070
0.984,-0.055
0.988,-0.040
0.992,-0.045
0.996,-0.055
1.000,-0.040
1.004,-0.050
1.008,-0.055
1.012,-0.045
1.016,-0.050
1.020,-0.050
1.024,-0.045
1.028,-0.055
1.032,-0.040
1.036,-0.040
1.040,-0.045
1.044,-0.050
1.048,-0.055
1.052,-0.065
1.056,-0.040
1.060,-0.060
1.064,-0.060
1.068,-0.045
1.072,-0.075
1.076,-0.065
1.080,-0.070
1.084,-0.080
1.088,-0.095
1.092,-0.085
1.096,-0.075
1.100,-0.095
1.104,-0.105
1.108,-0.085
1.112,-0.085
1.116,-0.090
1.120,-0.105
1.124,-0.085
1.128,-0.110
1.132,-0.100
1.136,-0.090
1.140,-0.080
1.144,-0.095
1.148,-0.085
1.152,-0.085
1.156,-0.055
1.160,-0.055
1.164,-0.040
1.168,-0.030
1.172,-0.055
1.176,-0.040
1.180,-0.045
1.184,-0.030
1.188,0.005
1.192,0.005
1.196,0.085
1.200,0.170
1.204,0.235
1.208,0.230
1.212,0.150
1.216,0.010
1.220,-0.210
1.224,-0.500
1.228,-0.755
1.232,-0.825
1.236,-0.775
1.240,-0.640
1.244,-0.480
1.248,-0.325
1.252,-0.215
1.256,-0.135
1.260,-0.115
1.264,-0.080
1.268,-0.100
1.272,-0.090
1.276,-0.060
1.280,-0.065
1.284,-0.065
1.288,-0.075
1.292,-0.040
1.296,-0.045
1.300,-0.070
1.304,-0.090
1.308,-0.070
1.312,-0.050
1.316,-0.050
1.320,-0.040
1.324,-0.055
1.328,-0.040
1.332,-0.025
1.336,-0.040
1.340,-0.055
1.344,-0.045
1.348,-0.055
1.352,-0.060
1.356,-0.065
1.360,-0.045
1.364,-0.040
1.368,-0.060
1.372,-0.040
1.376,-0.040
1.380,-0.040
1.384,-0.025
1.388,-0.035
1.392,-0.030
1.396,-0.025
1.400,-0.040
1.404,-0.015
1.408,-0.015
1.412,-0.030
1.416,-0.015
1.420,-0.015
1.424,-0.015
1.428,-0.015
1.432,-0.005
1.436,-0.005
1.440,0.000
1.444,-0.005
1.448,-0.025
1.452,-0.010
1.456,-0.030
1.460,-0.035
1.464,-0.035
1.468,-0.035
1.472,-0.020
1.476,-0.010
1.480,-0.025
1.484,-0.035
1.488,-0.030
1.492,-0.030
1.496,-0.030
1.500,-0.035
1.504,-0.040
1.508,-0.050
1.512,-0.050
1.516,-0.075
1.520,-0.060
1.524,-0.055
1.528,-0.050
1.532,-0.050
1.536,-0.070
1.540,-0.090
1.544,-0.085
1.548,-0.080
1.552,-0.080
1.556,-0.090
1.560,-0.100
1.564,-0.095
1.568,-0.080
1.572,-0.085
1.576,-0.080
1.580,-0.080
1.584,-0.090
1.588,-0.070
1.592,-0.080
1.596,-0.085
1.600,-0.085
1.604,-0.085
1.608,-0.075
1.612,-0.085
1.616,-0.075
1.620,-0.080
1.624,-0.085
1.628,-0.075
1.632,-0.060
1.636,-0.070
1.640,-0.070
1.644,-0.060
1.648,-0.080
1.652,-0.090
1.656,-0.075
1.660,-0.070
1.664,-0.070
1.668,-0.070
1.672,-0.075
1.676,-0.080
1.680,-0.080
1.684,-0.090
1.688,-0.105
1.692,-0.095
1.696,-0.100
1.700,-0.070
1.704,-0.095
1.708,-0.080
1.712,-0.100
1.716,-0.075
1.720,-0.075
1.724,-0.075
1.728,-0.115
1.732,-0.115
1.736,-0.100
1.740,-0.080
1.744,-0.105
1.748,-0.070
1.752,-0.055
1.756,-0.070
1.760,-0.080
1.764,-0.070
1.768,-0.095
1.772,-0.095
1.776,-0.070
1.780,-0.080
1.784,-0.100
1.788,-0.110
1.792,-0.075
1.796,-0.085
1.800,-0.095
1.804,-0.095
1.808,-0.075
1.812,-0.090
1.816,-0.090
1.820,-0.080
1.824,-0.090
1.828,-0.085
1.832,-0.090
1.836,-0.080
1.840,-0.070
1.844,-0.075
1.848,-0.090
1.852,-0.095
1.856,-0.075
1.860,-0.065
1.864,-0.090
1.868,-0.090
1.872,-0.110
1.876,-0.100
1.880,-0.130
1.884,-0.130
1.888,-0.120
1.892,-0.110
1.896,-0.105
1.900,-0.125
1.904,-0.115
1.908,-0.115
1.912,-0.100
1.916,-0.100
1.920,-0.095
1.924,-0.085
1.928,-0.090
1.932,-0.075
1.936,-0.075
1.940,-0.075
1.944,-0.060
1.948,-0.050
1.952,-0.030
1.956,-0.040
1.960,-0.055
1.964,-0.030
1.968,-0.005
1.972,0.015
1.976,0.070
1.980,0.125
1.984,0.195
1.988,0.220
1.992,0.200
1.996,0.140
2.000,0.010
2.004,-0.250
2.008,-0.565
2.012,-0.735
2.016,-0.775
2.020,-0.670
2.024,-0.565
2.028,-0.385
2.032,-0.240
2.036,-0.140
2.040,-0.085
2.044,-0.055
2.048,-0.030
2.052,-0.025
2.056,-0.010
2.060,-0.025
2.064,0.000
2.068,-0.015
2.072,-0.005
2.076,-0.025
2.080,0.000
2.084,-0.015
2.088,-0.020
2.092,-0.015
2.096,-0.015
2.100,-0.020
2.104,-0.025
2.108,-0.020
2.112,-0.020
2.116,-0.010
2.120,0.015
2.124,0.000
2.128,0.000
2.132,0.010
2.136,0.015
2.140,0.005
2.144,0.040
2.148,0.020
2.152,0.025
2.156,0.035
2.160,0.020
2.164,0.020
2.168,0.020
2.172,0.025
2.176,0.035
2.180,0.035
2.184,0.050
2.188,0.040
2.192,0.020
2.196,0.035
2.200,0.035
2.204,0.040
2.208,0.040
2.212,0.035
2.216,0.040
2.220,0.040
2.224,0.040
2.228,0.040
2.232,0.025
2.236,0.040
2.240,0.025
2.244,0.035
2.248,0.020
2.252,0.040
2.256,0.040
2.260,0.035
2.264,0.055
2.268,0.040
2.272,0.050
2.276,0.050
2.280,0.030
2.284,0.025
2.288,0.035
2.292,0.030
2.296,0.010
2.300,0.005
2.304,0.010
2.308,-0.020
2.312,-0.015
2.316,0.000
2.320,-0.005
2.324,-0.025
2.328,-0.020
2.332,-0.025
2.336,-0.020
2.340,-0.035
2.344,-0.020
2.348,-0.025
2.352,-0.040
2.356,-0.040
2.360,-0.050
2.364,-0.010
2.368,-0.025
2.372,-0.025
2.376,-0.015
2.380,-0.040
2.384,-0.025
2.388,-0.015
2.392,-0.030
2.396,-0.015
2.400,-0.020
2.404,-0.040
2.408,-0.045
2.412,-0.045
2.416,-0.025
2.420,-0.015
2.424,-0.010
2.428,-0.035
2.432,-0.025
2.436,-0.025
2.440,-0.045
2.444,-0.035
2.448,-0.050
2.452,-0.030
2.456,-0.025
2.460,-0.040
2.464,-0.030
2.468,-0.040
2.472,-0.055
2.476,-0.060
2.480,-0.050
2.484,-0.065
2.488,-0.050
2.492,-0.065
2.496,-0.075
2.500,-0.055
2.504,-0.055
2.508,-0.055
2.512,-0.060
2.516,-0.055
2.520,-0.065
2.524,-0.055
2.528,-0.060
2.532,-0.085
2.536,-0.060
2.540,-0.065
2.544,-0.060
2.548,-0.060
2.552,-0.060
2.556,-0.050
2.560,-0.070
2.564,-0.060
2.568,-0.055
2.572,-0.050
2.576,-0.065
2.580,-0.055
2.584,-0.060
2.588,-0.055
2.592,-0.070
2.596,-0.070
2.600,-0.070
2.604,-0.080
2.608,-0.065
2.612,-0.050
2.616,-0.060
2.620,-0.055
2.624,-0.070
2.628,-0.065
2.632,-0.070
2.636,-0.065
2.640,-0.085
2.644,-0.080
2.648,-0.080
2.652,-0.100
2.656,-0.115
2.660,-0.110
2.664,-0.100
2.668,-0.075
2.672,-0.110
2.676,-0.110
2.680,-0.110
2.684,-0.085
2.688,-0.095
2.692,-0.125
2.696,-0.115
2.700,-0.095
2.704,-0.085
2.708,-0.070
2.712,-0.090
2.716,-0.080
2.720,-0.065
2.724,-0.050
2.728,-0.060
2.732,-0.055
2.736,-0.060
2.740,-0.060
2.744,-0.035
2.748,-0.030
2.752,0.015
2.756,0.040
2.760,0.105
2.764,0.175
2.768,0.255
2.772,0.245
2.776,0.175
2.780,0.060
2.784,-0.135
2.788,-0.465
2.792,-0.700
2.796,-0.775
2.800,-0.710
2.804,-0.590
2.808,-0.425
2.812,-0.275
2.816,-0.160
2.820,-0.095
2.824,-0.070
2.828,-0.040
2.832,-0.055
2.836,-0.010
2.840,-0.020
2.844,-0.045
2.848,-0.035
2.852,-0.035
2.856,-0.030
2.860,-0.035
2.864,-0.025
2.868,-0.005
2.872,-0.020
2.876,-0.030
2.880,-0.015
2.884,-0.015
2.888,-0.015
2.892,0.005
2.896,-0.020
2.900,0.010
2.904,-0.010
2.908,0.010
2.912,0.000
2.916,-0.005
2.920,0.020
2.924,0.015
2.928,0.020
2.932,0.000
2.936,0.005
2.940,0.010
2.944,0.025
2.948,0.015
2.952,0.035
2.956,0.045
2.960,0.035
2.964,0.020
2.968,0.020
2.972,0.030
2.976,0.025
2.980,0.035
2.984,0.020
2.988,0.030
2.992,0.020
2.996,0.040
3.000,0.040
3.004,0.045
3.008,0.035
3.012,0.020
3.016,0.050
3.020,0.020
3.024,0.055
3.028,0.045
3.032,0.040
3.036,0.040
3.040,0.030
3.044,0.050
3.048,0.035
3.052,0.035
3.056,0.035
3.060,0.040
3.064,0.030
3.068,0.015
3.072,0.020
3.076,0.025
3.080,0.020
3.084,0.015
3.088,0.025
3.092,0.010
3.096,0.020
3.100,0.020
3.104,0.015
3.108,0.015
3.112,0.020
3.116,0.000
3.120,0.025
3.124,0.020
3.128,0.010
3.132,0.005
3.136,-0.005
3.140,-0.010
3.144,0.000
3.148,0.005
3.152,0.020
3.156,0.020
3.160,0.000
3.164,-0.005
3.168,0.000
3.172,-0.005
3.176,0.000
3.180,0.000
3.184,0.005
3.188,0.000
3.192,-0.010
3.196,-0.015
3.200,-0.030
3.204,-0.035
3.208,-0.015
3.212,-0.015
3.216,-0.005
3.220,-0.035
3.224,-0.005
3.228,-0.020
3.232,-0.035
3.236,-0.020
3.240,-0.035
3.244,-0.035
3.248,-0.050
3.252,-0.030
3.256,-0.030
3.260,-0.035
3.264,-0.040
3.268,-0.045
3.272,-0.025
3.276,-0.005
3.280,-0.015
3.284,-0.025
3.288,-0.040
3.292,-0.035
3.296,-0.035
3.300,-0.045
3.304,-0.035
3.308,-0.040
3.312,-0.030
3.316,-0.045
3.320,-0.030
3.324,-0.045
3.328,-0.035
3.332,-0.025
3.336,-0.030
3.340,-0.030
3.344,-0.040
3.348,-0.035
3.352,-0.035
3.356,-0.025
3.360,-0.050
3.364,-0.040
3.368,-0.030
3.372,-0.040
3.376,-0.045
3.380,-0.070
3.384,-0.055
3.388,-0.075
3.392,-0.030
3.396,-0.040
3.400,-0.040
3.404,-0.040
3.408,-0.040
3.412,-0.060
3.416,-0.075
3.420,-0.060
3.424,-0.070
3.428,-0.100
3.432,-0.100
3.436,-0.085
3.440,-0.080
3.444,-0.085
3.448,-0.080
3.452,-0.080
3.456,-0.065
3.460,-0.085
3.464,-0.090
3.468,-0.105
3.472,-0.100
3.476,-0.065
3.480,-0.060
3.484,-0.065
3.488,-0.085
3.492,-0.070
3.496,-0.050
3.500,-0.040
3.504,-0.035
3.508,-0.040
3.512,-0.030
3.516,-0.025
3.520,-0.015
3.524,0.030
3.528,0.045
3.532,0.125
3.536,0.210
3.540,0.230
3.544,0.185
3.548,0.090
3.552,-0.085
3.556,-0.380
3.560,-0.665
3.564,-0.795
3.568,-0.770
3.572,-0.685
3.576,-0.515
3.580,-0.340
3.584,-0.210
3.588,-0.125
3.592,-0.090
3.596,-0.075
3.600,-0.050
3.604,-0.040
3.608,-0.050
3.612,-0.035
3.616,-0.040
3.620,-0.065
3.624,-0.025
3.628,-0.030
3.632,-0.020
3.636,-0.040
3.640,-0.020
3.644,-0.035
3.648,-0.030
3.652,-0.040
3.656,-0.030
3.660,-0.030
3.664,-0.045
3.668,-0.010
3.672,0.000
3.676,0.010
3.680,0.010
3.684,0.015
3.688,0.005
3.692,0.010
3.696,0.000
3.700,-0.005
3.704,0.000
3.708,0.005
3.712,0.010
3.716,0.025
3.720,0.035
3.724,0.025
3.728,0.030
3.732,0.030
3.736,0.015
3.740,0.035
3.744,0.025
3.748,0.025
3.752,0.020
3.756,0.040
3.760,0.035
3.764,0.030
3.768,0.015
3.772,0.030
3.776,0.020
3.780,0.010
3.784,0.020
3.788,0.000
3.792,0.015
3.796,0.040
3.800,0.020
3.804,0.025
3.808,0.025
3.812,0.020
3.816,0.030
3.820,0.030
3.824,0.020
3.828,0.020
3.832,0.020
3.836,0.025
3.840,0.020
3.844,0.000
3.848,0.000
3.852,-0.015
3.856,-0.020
3.860,-0.020
3.864,-0.020
3.868,-0.015
3.872,0.000
3.876,-0.010
3.880,0.000
3.884,0.000
3.888,0.000
3.892,-0.015
3.896,-0.035
3.900,-0.030
3.904,-0.020
3.908,-0.010
3.912,0.000
3.916,0.000
3.920,0.010
3.924,-0.040
3.928,-0.005
3.932,0.010
3.936,-0.040
3.940,-0.025
3.944,-0.005
3.948,-0.020
3.952,-0.025
3.956,-0.020
3.960,-0.035
3.964,-0.020
3.968,-0.030
3.972,-0.020
3.976,-0.015
3.980,0.000
3.984,0.000
3.988,-0.020
3.992,-0.020
3.996,-0.030
4.000,-0.010
4.004,-0.030
4.008,-0.015
4.012,-0.020
4.016,-0.020
4.020,-0.020
4.024,-0.045
4.028,-0.020
4.032,0.000
4.036,-0.020
4.040,0.005
4.044,-0.010
4.048,-0.015
4.052,-0.015
4.056,-0.010
4.060,0.005
4.064,-0.005
4.068,-0.020
4.072,-0.025
4.076,0.005
4.080,0.005
4.084,0.015
4.088,0.005
4.092,0.005
4.096,0.005
4.100,-0.020
4.104,0.000
4.108,0.000
4.112,0.000
4.116,0.010
4.120,0.015
4.124,0.005
4.128,-0.010
4.132,0.000
4.136,-0.020
4.140,-0.005
4.144,0.000
4.148,0.000
4.152,0.005
4.156,-0.010
4.160,-0.010
4.164,0.000
4.168,-0.020
4.172,0.000
4.176,-0.030
4.180,-0.025
4.184,-0.025
4.188,-0.005
4.192,-0.030
4.196,-0.030
4.200,-0.035
4.204,-0.035
4.208,-0.035
4.212,-0.065
4.216,-0.045
4.220,-0.020
4.224,-0.030
4.228,-0.040
4.232,-0.035
4.236,-0.015
4.240,-0.010
4.244,-0.025
4.248,-0.025
4.252,-0.010
4.256,-0.020
4.260,0.000
4.264,0.010
4.268,0.025
4.272,0.015
4.276,0.035
4.280,0.025
4.284,0.035
4.288,0.050
4.292,0.025
4.296,0.070
4.300,0.105
4.304,0.155
4.308,0.255
4.312,0.305
4.316,0.265
4.320,0.200
4.324,0.025
4.328,-0.240
4.332,-0.535
4.336,-0.715
4.340,-0.745
4.344,-0.660
4.348,-0.480
4.352,-0.310
4.356,-0.180
4.360,-0.090
4.364,-0.020
4.368,-0.010
4.372,0.005
4.376,0.005
4.380,0.000
4.384,-0.005
4.388,0.000
4.392,0.005
4.396,0.025
4.400,0.015
4.404,0.015
4.408,0.020
4.412,0.015
4.416,0.005
4.420,0.030
4.424,0.020
4.428,0.025
4.432,0.035
4.436,0.025
4.440,0.025
4.444,0.015
4.448,0.040
4.452,0.030
4.456,0.035
4.460,0.030
4.464,0.035
4.468,0.050
4.472,0.045
4.476,0.075
4.480,0.035
4.484,0.055
4.488,0.050
4.492,0.055
4.496,0.030
4.500,0.040
4.504,0.050
4.508,0.045
4.512,0.055
4.516,0.035
4.520,0.055
4.524,0.060
4.528,0.045
4.532,0.050
4.536,0.040
4.540,0.030
4.544,0.050
4.548,0.040
4.552,0.015
4.556,0.025
4.560,0.035
4.564,0.000
4.568,0.025
4.572,0.025
4.576,0.020
4.580,0.040
4.584,0.035
4.588,0.020
4.592,0.025
4.596,0.025
4.600,0.035
4.604,0.020
4.608,0.025
4.612,0.020
4.616,0.000
4.620,0.005
4.624,0.000
4.628,-0.025
4.632,-0.005
4.636,-0.035
4.640,-0.015
4.644,-0.025
4.648,-0.020
4.652,-0.040
4.656,-0.035
4.660,-0.040
4.664,-0.035
4.668,-0.030
4.672,-0.025
4.676,-0.030
4.680,-0.035
4.684,-0.035
4.688,-0.050
4.692,-0.060
4.696,-0.025
4.700,-0.040
4.704,-0.045
4.708,-0.045
4.712,-0.040
4.716,-0.040
4.720,-0.025
4.724,-0.020
4.728,-0.035
4.732,-0.030
4.736,-0.020
4.740,-0.015
4.744,-0.040
4.748,-0.045
4.752,-0.040
4.756,-0.035
4.760,-0.055
4.764,-0.040
4.768,-0.050
4.772,-0.060
4.776,-0.065
4.780,-0.050
4.784,-0.070
4.788,-0.070
4.792,-0.070
4.796,-0.055
4.800,-0.060
4.804,-0.045
4.808,-0.045
4.812,-0.045
4.816,-0.050
4.820,-0.040
4.824,-0.070
4.828,-0.055
4.832,-0.055
4.836,-0.060
4.840,-0.060
4.844,-0.045
4.848,-0.045
4.852,-0.060
4.856,-0.070
4.860,-0.095
4.864,-0.085
4.868,-0.060
4.872,-0.055
4.876,-0.070
4.880,-0.040
4.884,-0.045
4.888,-0.040
4.892,-0.040
4.896,-0.065
4.900,-0.070
4.904,-0.060
4.908,-0.060
4.912,-0.080
4.916,-0.085
4.920,-0.065
4.924,-0.055
4.928,-0.075
4.932,-0.070
4.936,-0.065
4.940,-0.050
4.944,-0.070
4.948,-0.050
4.952,-0.065
4.956,-0.055
4.960,-0.070
4.964,-0.055
4.968,-0.070
4.972,-0.055
4.976,-0.060
4.980,-0.055
4.984,-0.065
4.988,-0.065
4.992,-0.060
4.996,-0.060
5.000,-0.085
5.004,-0.085
5.008,-0.085
5.012,-0.075
5.016,-0.065
5.020,-0.090
5.024,-0.095
5.028,-0.095
5.032,-0.085
5.036,-0.105
5.040,-0.095
5.044,-0.110
5.048,-0.060
5.052,-0.065
5.056,-0.045
5.060,-0.045
5.064,-0.050
5.068,-0.025
5.072,-0.035
5.076,-0.030
5.080,-0.035
5.084,-0.025
5.088,-0.025
5.092,-0.030
5.096,-0.015
5.100,0.025
5.104,0.035
5.108,0.090
5.112,0.125
5.116,0.175
5.120,0.215
5.124,0.170
5.128,0.075
5.132,-0.080
5.136,-0.290
5.140,-0.540
5.144,-0.710
5.148,-0.740
5.152,-0.675
5.156,-0.545
5.160,-0.400
5.164,-0.270
5.168,-0.175
5.172,-0.105
5.176,-0.075
5.180,-0.050
5.184,-0.060
5.188,-0.040
5.192,-0.040
5.196,-0.045
5.200,-0.050
5.204,-0.040
5.208,-0.030
5.212,-0.020
5.216,-0.030
5.220,-0.020
5.224,-0.025
5.228,-0.035
5.232,-0.030
5.236,-0.025
5.240,-0.020
5.244,-0.015
5.248,-0.020
5.252,-0.020
5.256,-0.035
5.260,-0.030
5.264,-0.010
5.268,-0.010
5.272,0.000
5.276,0.000
5.280,-0.005
5.284,-0.010
5.288,-0.030
5.292,-0.005
5.296,-0.025
5.300,-0.010
5.304,-0.005
5.308,0.000
5.312,0.010
5.316,-0.005
5.320,-0.005
5.324,-0.015
5.328,-0.025
5.332,-0.025
5.336,-0.035
5.340,-0.035
5.344,-0.020
5.348,-0.005
5.352,0.010
5.356,-0.020
5.360,-0.040
5.364,-0.015
5.368,0.000
5.372,-0.015
5.376,-0.005
5.380,0.000
5.384,-0.010
5.388,-0.020
5.392,0.000
5.396,-0.010
5.400,0.000
5.404,0.000
5.408,-0.005
5.412,0.000
5.416,0.015
5.420,-0.005
5.424,0.000
5.428,0.000
5.432,0.005
5.436,-0.010
5.440,-0.015
5.444,-0.020
5.448,-0.045
5.452,-0.050
5.456,-0.045
5.460,-0.075
5.464,-0.050
5.468,-0.050
5.472,-0.070
5.476,-0.060
5.480,-0.065
5.484,-0.075
5.488,-0.075
5.492,-0.060
5.496,-0.080
5.500,-0.060
5.504,-0.080
5.508,-0.070
5.512,-0.065
5.516,-0.065
5.520,-0.065
5.524,-0.075
5.528,-0.095
5.532,-0.055
5.536,-0.105
5.540,-0.095
5.544,-0.100
5.548,-0.090
5.552,-0.095
5.556,-0.080
5.560,-0.095
5.564,-0.095
5.568,-0.095
5.572,-0.085
5.576,-0.090
5.580,-0.090
5.584,-0.095
5.588,-0.085
5.592,-0.095
5.596,-0.105
5.600,-0.105
5.604,-0.095
5.608,-0.085
5.612,-0.080
5.616,-0.105
5.620,-0.080
5.624,-0.095
5.628,-0.105
5.632,-0.105
5.636,-0.095
5.640,-0.080
5.644,-0.115
5.648,-0.110
5.652,-0.085
5.656,-0.085
5.660,-0.095
5.664,-0.100
5.668,-0.125
5.672,-0.090
5.676,-0.110
5.680,-0.090
5.684,-0.115
5.688,-0.090
5.692,-0.095
5.696,-0.105
5.700,-0.090
5.704,-0.110
5.708,-0.125
5.712,-0.100
5.716,-0.120
5.720,-0.090
5.724,-0.110
5.728,-0.125
5.732,-0.130
5.736,-0.100
5.740,-0.105
5.744,-0.105
5.748,-0.120
5.752,-0.110
5.756,-0.115
5.760,-0.100
5.764,-0.100
5.768,-0.115
5.772,-0.105
5.776,-0.110
5.780,-0.090
5.784,-0.100
5.788,-0.105
5.792,-0.120
5.796,-0.100
5.800,-0.115
5.804,-0.095
5.808,-0.100
5.812,-0.080
5.816,-0.095
5.820,-0.105
5.824,-0.110
5.828,-0.090
5.832,-0.105
5.836,-0.140
5.840,-0.130
5.844,-0.125
5.848,-0.130
5.852,-0.105
5.856,-0.120
5.860,-0.135
5.864,-0.105
5.868,-0.090
5.872,-0.100
5.876,-0.120
5.880,-0.125
5.884,-0.145
5.888,-0.125
5.892,-0.100
5.896,-0.070
5.900,-0.095
5.904,-0.085
5.908,-0.075
5.912,-0.085
5.916,-0.070
5.920,-0.080
5.924,-0.080
5.928,-0.065
5.932,-0.070
5.936,-0.040
5.940,-0.030
5.944,-0.005
5.948,0.025
5.952,0.085
5.956,0.135
5.960,0.185
5.964,0.120
5.968,0.015
5.972,-0.140
5.976,-0.400
5.980,-0.660
5.984,-0.785
5.988,-0.805
5.992,-0.715
5.996,-0.565
6.000,-0.420
6.004,-0.310
6.008,-0.190
6.012,-0.135
6.016,-0.100
6.020,-0.110
6.024,-0.100
6.028,-0.090
6.032,-0.065
6.036,-0.080
6.040,-0.075
6.044,-0.075
6.048,-0.075
6.052,-0.080
6.056,-0.060
6.060,-0.060
6.064,-0.055
6.068,-0.060
6.072,-0.050
6.076,-0.055
6.080,-0.070
6.084,-0.055
6.088,-0.080
6.092,-0.070
6.096,-0.065
6.100,-0.045
6.104,-0.040
6.108,-0.035
6.112,-0.035
6.116,-0.025
6.120,-0.040
6.124,-0.050
6.128,-0.030
6.132,-0.020
6.136,-0.025
6.140,-0.045
6.144,-0.035
6.148,-0.035
6.152,-0.045
6.156,-0.035
6.160,-0.040
6.164,-0.030
6.168,-0.015
6.172,-0.025
6.176,-0.035
6.180,-0.035
6.184,-0.020
6.188,-0.025
6.192,-0.005
6.196,-0.025
6.200,-0.025
6.204,-0.020
6.208,-0.015
6.212,-0.020
6.216,-0.015
6.220,-0.010
6.224,0.005
6.228,0.000
6.232,0.000
6.236,0.020
6.240,-0.010
6.244,0.015
6.248,-0.005
6.252,-0.005
6.256,0.015
6.260,0.010
6.264,0.000
6.268,0.010
6.272,-0.005
6.276,-0.015
6.280,0.000
6.284,-0.020
6.288,-0.035
6.292,-0.025
6.296,-0.025
6.300,-0.040
6.304,-0.035
6.308,-0.030
6.312,-0.040
6.316,-0.060
6.320,-0.070
6.324,-0.055
6.328,-0.065
6.332,-0.070
6.336,-0.050
6.340,-0.050
6.344,-0.075
6.348,-0.025
6.352,-0.045
6.356,-0.040
6.360,-0.035
6.364,-0.045
6.368,-0.040
6.372,-0.035
6.376,-0.070
6.380,-0.070
6.384,-0.055
6.388,-0.060
6.392,-0.055
6.396,-0.035
6.400,-0.050
6.404,-0.045
6.408,-0.035
6.412,-0.045
6.416,-0.060
6.420,-0.045
6.424,-0.050
6.428,-0.050
6.432,-0.055
6.436,-0.035
6.440,-0.055
6.444,-0.060
6.448,-0.060
6.452,-0.070
6.456,-0.045
6.460,-0.070
6.464,-0.070
6.468,-0.075
6.472,-0.050
6.476,-0.050
6.480,-0.065
6.484,-0.060
6.488,-0.060
6.492,-0.055
6.496,-0.065
6.500,-0.055
6.504,-0.080
6.508,-0.085
6.512,-0.065
6.516,-0.085
6.520,-0.060
6.524,-0.060
6.528,-0.080
6.532,-0.080
6.536,-0.085
6.540,-0.100
6.544,-0.095
6.548,-0.095
6.552,-0.085
6.556,-0.085
6.560,-0.075
6.564,-0.070
6.568,-0.070
6.572,-0.080
6.576,-0.100
6.580,-0.100
6.584,-0.080
6.588,-0.085
6.592,-0.085
6.596,-0.095
6.600,-0.075
6.604,-0.085
6.608,-0.080
6.612,-0.085
6.616,-0.075
6.620,-0.090
6.624,-0.105
6.628,-0.065
6.632,-0.070
6.636,-0.070
6.640,-0.065
6.644,-0.070
6.648,-0.065
6.652,-0.090
6.656,-0.080
6.660,-0.065
6.664,-0.075
6.668,-0.080
6.672,-0.090
6.676,-0.105
6.680,-0.115
6.684,-0.115
6.688,-0.115
6.692,-0.120
6.696,-0.125
6.700,-0.110
6.704,-0.135
6.708,-0.105
6.712,-0.125
6.716,-0.130
6.720,-0.130
6.724,-0.125
6.728,-0.125
6.732,-0.110
6.736,-0.110
6.740,-0.115
6.744,-0.100
6.748,-0.095
6.752,-0.075
6.756,-0.080
6.760,-0.085
6.764,-0.080
6.768,-0.085
6.772,-0.065
6.776,-0.040
6.780,0.000
6.784,0.025
6.788,0.095
6.792,0.165
6.796,0.180
6.800,0.140
6.804,0.035
6.808,-0.145
6.812,-0.455
6.816,-0.705
6.820,-0.820
6.824,-0.790
6.828,-0.675
6.832,-0.510
6.836,-0.365
6.840,-0.240
6.844,-0.160
6.848,-0.125
6.852,-0.090
6.856,-0.070
6.860,-0.085
6.864,-0.070
6.868,-0.085
6.872,-0.075
6.876,-0.075
6.880,-0.080
6.884,-0.080
6.888,-0.090
6.892,-0.050
6.896,-0.045
6.900,-0.085
6.904,-0.065
6.908,-0.080
6.912,-0.080
6.916,-0.070
6.920,-0.070
6.924,-0.070
6.928,-0.060
6.932,-0.060
6.936,-0.050
6.940,-0.075
6.944,-0.035
6.948,-0.045
6.952,-0.055
6.956,-0.060
6.960,-0.045
6.964,-0.045
6.968,-0.020
6.972,-0.045
6.976,-0.060
6.980,-0.040
6.984,-0.025
6.988,-0.030
6.992,-0.040
6.996,-0.045
7.000,-0.035
7.004,-0.040
7.008,-0.025
7.012,-0.030
7.016,-0.045
7.020,-0.030
7.024,-0.040
7.028,-0.025
7.032,-0.035
7.036,-0.030
7.040,-0.055
7.044,-0.010
7.048,-0.030
7.052,-0.020
7.056,-0.030
7.060,-0.015
7.064,0.000
7.068,-0.020
7.072,-0.025
7.076,0.000
7.080,-0.035
7.084,-0.025
7.088,-0.010
7.092,-0.025
7.096,-0.035
7.100,-0.040
7.104,-0.045
7.108,-0.050
7.112,-0.040
7.116,-0.070
7.120,-0.085
7.124,-0.075
7.128,-0.040
7.132,-0.075
7.136,-0.055
7.140,-0.050
7.144,-0.055
7.148,-0.065
7.152,-0.055
7.156,-0.070
7.160,-0.100
7.164,-0.080
7.168,-0.095
7.172,-0.080
7.176,-0.065
7.180,-0.070
7.184,-0.090
7.188,-0.080
7.192,-0.085
7.196,-0.065
7.200,-0.085
7.204,-0.070
7.208,-0.060
7.212,-0.090
7.216,-0.075
7.220,-0.070
7.224,-0.050
7.228,-0.080
7.232,-0.080
7.236,-0.080
7.240,-0.070
7.244,-0.085
7.248,-0.070
7.252,-0.075
7.256,-0.080
7.260,-0.065
7.264,-0.075
7.268,-0.070
7.272,-0.100
7.276,-0.100
7.280,-0.090
7.284,-0.090
7.288,-0.080
7.292,-0.080
7.296,-0.065
7.300,-0.085
7.304,-0.075
7.308,-0.095
7.312,-0.080
7.316,-0.095
7.320,-0.080
7.324,-0.070
7.328,-0.070
7.332,-0.085
7.336,-0.085
7.340,-0.070
7.344,-0.070
7.348,-0.070
7.352,-0.070
7.356,-0.080
7.360,-0.075
7.364,-0.095
7.368,-0.065
7.372,-0.055
7.376,-0.080
7.380,-0.080
7.384,-0.060
7.388,-0.060
7.392,-0.070
7.396,-0.060
7.400,-0.070
7.404,-0.050
7.408,-0.070
7.412,-0.065
7.416,-0.050
7.420,-0.055
7.424,-0.050
7.428,-0.045
7.432,-0.060
7.436,-0.045
7.440,-0.065
7.444,-0.060
7.448,-0.045
7.452,-0.055
7.456,-0.050
7.460,-0.065
7.464,-0.070
7.468,-0.080
7.472,-0.080
7.476,-0.075
7.480,-0.070
7.484,-0.100
7.488,-0.110
7.492,-0.100
7.496,-0.065
7.500,-0.100
7.504,-0.085
7.508,-0.100
7.512,-0.085
7.516,-0.105
7.520,-0.085
7.524,-0.095
7.528,-0.070
7.532,-0.090
7.536,-0.055
7.540,-0.070
7.544,-0.055
7.548,-0.045
7.552,-0.035
7.556,-0.055
7.560,-0.040
7.564,-0.055
7.568,-0.015
7.572,0.000
7.576,0.065
7.580,0.115
7.584,0.155
7.588,0.210
7.592,0.215
7.596,0.145
7.600,0.035
7.604,-0.190
7.608,-0.520
7.612,-0.725
7.616,-0.760
7.620,-0.670
7.624,-0.545
7.628,-0.370
7.632,-0.235
7.636,-0.150
7.640,-0.080
7.644,-0.065
7.648,-0.060
7.652,-0.070
7.656,-0.040
7.660,-0.045
7.664,-0.045
7.668,-0.035
7.672,-0.030
7.676,-0.025
7.680,-0.035
7.684,-0.025
7.688,-0.030
7.692,-0.020
7.696,-0.005
7.700,-0.005
7.704,-0.010
7.708,-0.010
7.712,0.000
7.716,0.000
7.720,0.000
7.724,0.000
7.728,0.005
7.732,0.015
7.736,0.015
7.740,0.025
7.744,0.025
7.748,0.020
7.752,0.030
7.756,0.035
7.760,0.045
7.764,0.040
7.768,0.045
7.772,0.040
7.776,0.070
7.780,0.055
7.784,0.070
7.788,0.060
7.792,0.060
7.796,0.075
7.800,0.060
7.804,0.065
7.808,0.055
7.812,0.065
7.816,0.055
7.820,0.060
7.824,0.050
7.828,0.065
7.832,0.070
7.836,0.050
7.840,0.070
7.844,0.070
7.848,0.055
7.852,0.080
7.856,0.080
7.860,0.055
7.864,0.065
7.868,0.080
7.872,0.065
7.876,0.045
7.880,0.055
7.884,0.055
7.888,0.045
7.892,0.055
7.896,0.025
7.900,0.045
7.904,0.045
7.908,0.030
7.912,0.030
7.916,0.015
7.920,0.025
7.924,0.000
7.928,0.010
7.932,0.025
7.936,0.035
7.940,0.040
7.944,0.015
7.948,0.020
7.952,0.020
7.956,0.035
7.960,0.020
7.964,0.015
7.968,0.035
7.972,0.035
7.976,0.035
7.980,0.035
7.984,0.015
7.988,0.035
7.992,0.030
7.996,0.045
8.000,0.030
8.004,0.030
8.008,0.035
8.012,0.035
8.016,0.025
8.020,0.045
8.024,0.020
8.028,0.040
8.032,0.045
8.036,0.055
8.040,0.035
8.044,0.030
8.048,0.025
8.052,0.025
8.056,0.045
8.060,0.045
8.064,0.060
8.068,0.030
8.072,0.035
8.076,0.035
8.080,0.025
8.084,0.020
8.088,0.040
8.092,0.035
8.096,0.020
8.100,0.065
8.104,0.045
8.108,0.045
8.112,0.030
8.116,0.030
8.120,0.050
8.124,0.025
8.128,0.040
8.132,0.055
8.136,0.045
8.140,0.045
8.144,0.060
8.148,0.075
8.152,0.065
8.156,0.055
8.160,0.075
8.164,0.065
8.168,0.065
8.172,0.055
8.176,0.060
8.180,0.050
8.184,0.040
8.188,0.050
8.192,0.055
8.196,0.050
8.200,0.060
8.204,0.050
8.208,0.050
8.212,0.070
8.216,0.060
8.220,0.060
8.224,0.065
8.228,0.035
8.232,0.040
8.236,0.020
8.240,0.040
8.244,0.020
8.248,0.025
8.252,0.030
8.256,0.035
8.260,0.020
8.264,0.000
8.268,0.010
8.272,0.020
8.276,0.010
8.280,0.010
8.284,0.010
8.288,0.020
8.292,0.030
8.296,0.020
8.300,0.045
8.304,0.075
8.308,0.060
8.312,0.040
8.316,0.055
8.320,0.065
8.324,0.070
8.328,0.085
8.332,0.060
8.336,0.060
8.340,0.105
8.344,0.120
8.348,0.135
8.352,0.180
8.356,0.250
8.360,0.330
8.364,0.390
8.368,0.340
8.372,0.275
8.376,0.165
8.380,-0.100
8.384,-0.405
8.388,-0.620
8.392,-0.635
8.396,-0.550
8.400,-0.395
8.404,-0.250
8.408,-0.105
8.412,-0.010
8.416,0.020
8.420,0.035
8.424,0.040
8.428,0.040
8.432,0.060
8.436,0.060
8.440,0.070
8.444,0.075
8.448,0.055
8.452,0.070
8.456,0.080
8.460,0.080
8.464,0.060
8.468,0.060
8.472,0.055
8.476,0.060
8.480,0.080
8.484,0.075
8.488,0.080
8.492,0.115
8.496,0.080
8.500,0.085
8.504,0.070
8.508,0.075
8.512,0.075
8.516,0.075
8.520,0.100
8.524,0.080
8.528,0.115
8.532,0.100
8.536,0.110
8.540,0.095
8.544,0.105
8.548,0.100
8.552,0.100
8.556,0.095
8.560,0.075
8.564,0.120
8.568,0.095
8.572,0.100
8.576,0.100
8.580,0.100
8.584,0.100
8.588,0.130
8.592,0.105
8.596,0.100
8.600,0.095
8.604,0.095
8.608,0.095
8.612,0.085
8.616,0.075
8.620,0.080
8.624,0.080
8.628,0.070
8.632,0.095
8.636,0.065
8.640,0.070
8.644,0.060
8.648,0.065
8.652,0.055
8.656,0.060
8.660,0.070
8.664,0.065
8.668,0.040
8.672,0.045
8.676,0.060
8.680,0.050
8.684,0.030
8.688,0.015
8.692,0.035
8.696,0.035
8.700,0.045
8.704,0.055
8.708,0.035
8.712,0.025
8.716,0.035
8.720,0.020
8.724,0.035
8.728,0.045
8.732,0.025
8.736,0.030
8.740,0.060
8.744,0.030
8.748,0.035
8.752,0.040
8.756,0.045
8.760,0.030
8.764,0.025
8.768,0.035
8.772,0.025
8.776,0.050
8.780,0.050
8.784,0.040
8.788,0.030
8.792,0.040
8.796,0.060
8.800,0.030
8.804,0.020
8.808,0.025
8.812,0.015
8.816,0.025
8.820,0.030
8.824,0.025
8.828,0.015
8.832,0.015
8.836,0.030
8.840,0.015
8.844,0.025
8.848,0.000
8.852,0.000
8.856,0.000
8.860,0.030
8.864,0.020
8.868,0.015
8.872,0.020
8.876,0.010
8.880,0.025
8.884,0.010
8.888,0.005
8.892,0.015
8.896,0.025
8.900,0.015
8.904,0.030
8.908,0.030
8.912,0.020
8.916,0.040
8.920,0.030
8.924,0.015
8.928,0.030
8.932,0.025
8.936,0.025
8.940,0.025
8.944,0.030
8.948,0.045
8.952,0.035
8.956,0.045
8.960,0.025
8.964,0.025
8.968,0.020
8.972,0.045
8.976,0.010
8.980,0.025
8.984,0.015
8.988,0.015
8.992,0.035
8.996,0.020
9.000,0.000
9.004,0.000
9.008,0.010
9.012,0.000
9.016,0.015
9.020,0.005
9.024,0.005
9.028,0.015
9.032,0.000
9.036,0.000
9.040,0.005
9.044,0.000
9.048,0.000
9.052,0.000
9.056,-0.030
9.060,-0.010
9.064,-0.025
9.068,0.015
9.072,0.005
9.076,0.000
9.080,0.015
9.084,0.010
9.088,0.000
9.092,0.015
9.096,0.030
9.100,0.035
9.104,0.035
9.108,0.045
9.112,0.055
9.116,0.085
9.120,0.065
9.124,0.090
9.128,0.085
9.132,0.060
9.136,0.070
9.140,0.085
9.144,0.130
9.148,0.160
9.152,0.175
9.156,0.260
9.160,0.350
9.164,0.330
9.168,0.260
9.172,0.150
9.176,-0.065
9.180,-0.350
9.184,-0.580
9.188,-0.675
9.192,-0.660
9.196,-0.535
9.200,-0.380
9.204,-0.225
9.208,-0.120
9.212,-0.055
9.216,0.020
9.220,0.040
9.224,0.040
9.228,0.070
9.232,0.065
9.236,0.085
9.240,0.065
9.244,0.090
9.248,0.075
9.252,0.060
9.256,0.070
9.260,0.075
9.264,0.075
9.268,0.080
9.272,0.085
9.276,0.065
9.280,0.095
9.284,0.095
9.288,0.090
9.292,0.095
9.296,0.105
9.300,0.110
9.304,0.110
9.308,0.115
9.312,0.105
9.316,0.120
9.320,0.130
9.324,0.115
9.328,0.120
9.332,0.115
9.336,0.125
9.340,0.120
9.344,0.140
9.348,0.135
9.352,0.165
9.356,0.145
9.360,0.125
9.364,0.120
9.368,0.145
9.372,0.135
9.376,0.150
9.380,0.145
9.384,0.145
9.388,0.150
9.392,0.150
9.396,0.155
9.400,0.135
9.404,0.145
9.408,0.150
9.412,0.135
9.416,0.140
9.420,0.150
9.424,0.165
9.428,0.150
9.432,0.160
9.436,0.160
9.440,0.180
9.444,0.175
9.448,0.170
9.452,0.165
9.456,0.150
9.460,0.175
9.464,0.180
9.468,0.170
9.472,0.145
9.476,0.120
9.480,0.140
9.484,0.155
9.488,0.145
9.492,0.155
9.496,0.135
9.500,0.140
9.504,0.135
9.508,0.130
9.512,0.125
9.516,0.110
9.520,0.110
9.524,0.110
9.528,0.120
9.532,0.110
9.536,0.125
9.540,0.105
9.544,0.095
9.548,0.110
9.552,0.110
9.556,0.100
9.560,0.080
9.564,0.090
9.568,0.095
9.572,0.100
9.576,0.120
9.580,0.110
9.584,0.075
9.588,0.100
9.592,0.080
9.596,0.085
9.600,0.065
9.604,0.070
9.608,0.085
9.612,0.055
9.616,0.055
9.620,0.080
9.624,0.055
9.628,0.060
9.632,0.075
9.636,0.085
9.640,0.065
9.644,0.055
9.648,0.060
9.652,0.070
9.656,0.075
9.660,0.080
9.664,0.070
9.668,0.045
9.672,0.050
9.676,0.030
9.680,0.045
9.684,0.070
9.688,0.075
9.692,0.035
9.696,0.045
9.700,0.050
9.704,0.065
9.708,0.040
9.712,0.040
9.716,0.055
9.720,0.050
9.724,0.040
9.728,0.030
9.732,0.060
9.736,0.055
9.740,0.055
9.744,0.060
9.748,0.050
9.752,0.075
9.756,0.080
9.760,0.055
9.764,0.055
9.768,0.065
9.772,0.080
9.776,0.075
9.780,0.075
9.784,0.075
9.788,0.060
9.792,0.060
9.796,0.040
9.800,0.040
9.804,0.045
9.808,0.055
9.812,0.050
9.816,0.050
9.820,0.070
9.824,0.040
9.828,0.035
9.832,0.030
9.836,0.030
9.840,0.050
9.844,0.050
9.848,0.045
9.852,0.035
9.856,0.055
9.860,0.065
9.864,0.050
9.868,0.070
9.872,0.060
9.876,0.035
9.880,0.040
9.884,0.070
9.888,0.060
9.892,0.060
9.896,0.070
9.900,0.095
9.904,0.065
9.908,0.095
9.912,0.100
9.916,0.095
9.920,0.090
9.924,0.115
9.928,0.100
9.932,0.130
9.936,0.140
9.940,0.210
9.944,0.260
9.948,0.335
9.952,0.375
9.956,0.350
9.960,0.300
9.964,0.205
9.968,0.000
9.972,-0.290
9.976,-0.510
9.980,-0.530
9.984,-0.490
9.988,-0.370
9.992,-0.230
9.996,-0.100
