'Elapsed time','ECG1'
'seconds','mV'
0.000,-0.015
0.004,-0.045
0.008,-0.030
0.012,-0.025
0.016,-0.005
0.020,-0.045
0.024,-0.015
0.028,-0.025
0.032,-0.040
0.036,-0.045
0.040,-0.050
0.044,-0.040
0.048,-0.045
0.052,-0.035
0.056,-0.045
0.060,-0.050
0.064,-0.040
0.068,-0.045
0.072,-0.055
0.076,-0.050
0.080,-0.035
0.084,-0.040
0.088,-0.050
0.092,-0.060
0.096,-0.040
0.100,-0.010
0.104,0.000
0.108,0.035
0.112,0.035
0.116,0.060
0.120,0.070
0.124,0.075
0.128,0.050
0.132,0.040
0.136,0.000
0.140,-0.015
0.144,-0.015
0.148,-0.050
0.152,-0.090
0.156,-0.085
0.160,-0.100
0.164,-0.090
0.168,-0.125
0.172,-0.125
0.176,-0.125
0.180,-0.110
0.184,-0.090
0.188,-0.070
0.192,-0.050
0.196,-0.085
0.200,-0.070
0.204,-0.075
0.208,-0.055
0.212,-0.030
0.216,-0.010
0.220,-0.010
0.224,-0.020
0.228,-0.040
0.232,-0.005
0.236,-0.025
0.240,-0.035
0.244,-0.025
0.248,-0.025
0.252,-0.030
0.256,-0.015
0.260,-0.025
0.264,-0.030
0.268,-0.035
0.272,-0.050
0.276,-0.045
0.280,-0.060
0.284,-0.045
0.288,-0.045
0.292,-0.030
0.296,0.000
0.300,0.050
0.304,-0.005
0.308,-0.025
0.312,-0.070
0.316,-0.105
0.320,-0.185
0.324,-0.405
0.328,-0.690
0.332,-1.040
0.336,-1.310
0.340,-1.475
0.344,-1.545
0.348,-1.405
0.352,-1.055
0.356,-0.610
0.360,-0.255
0.364,-0.145
0.368,-0.125
0.372,-0.140
0.376,-0.165
0.380,-0.150
0.384,-0.100
0.388,-0.065
0.392,-0.005
0.396,0.030
0.400,0.085
0.404,0.060
0.408,0.075
0.412,0.055
0.416,0.060
0.420,0.070
0.424,0.075
0.428,0.105
0.432,0.095
0.436,0.110
0.440,0.095
0.444,0.115
0.448,0.110
0.452,0.100
0.456,0.100
0.460,0.100
0.464,0.115
0.468,0.115
0.472,0.110
0.476,0.120
0.480,0.105
0.484,0.115
0.488,0.115
0.492,0.120
0.496,0.110
0.500,0.100
0.504,0.110
0.508,0.100
0.512,0.080
0.516,0.080
0.520,0.100
0.524,0.080
0.528,0.095
0.532,0.110
0.536,0.095
0.540,0.085
0.544,0.090
0.548,0.095
0.552,0.105
0.556,0.100
0.560,0.115
0.564,0.090
0.568,0.080
0.572,0.085
0.576,0.070
0.580,0.065
0.584,0.090
0.588,0.090
0.592,0.060
0.596,0.045
0.600,0.055
0.604,0.050
0.608,0.015
0.612,0.025
0.616,0.020
0.620,0.020
0.624,0.010
0.628,0.030
0.632,0.015
0.636,0.005
0.640,0.005
0.644,0.005
0.648,0.015
0.652,0.005
0.656,0.010
0.660,0.015
0.664,0.010
0.668,0.030
0.672,0.030
0.676,0.020
0.680,0.005
0.684,0.025
0.688,0.015
0.692,0.035
0.696,0.035
0.700,0.040
0.704,0.020
0.708,0.030
0.712,0.035
0.716,0.050
0.720,0.065
0.724,0.055
0.728,0.045
0.732,0.070
0.736,0.065
0.740,0.050
0.744,0.060
0.748,0.055
0.752,0.050
0.756,0.050
0.760,0.050
0.764,0.050
0.768,0.060
0.772,0.050
0.776,0.055
0.780,0.040
0.784,0.065
0.788,0.050
0.792,0.045
0.796,0.045
0.800,0.035
0.804,0.050
0.808,0.045
0.812,0.035
0.816,0.040
0.820,0.035
0.824,0.035
0.828,0.035
0.832,0.025
0.836,0.040
0.840,0.035
0.844,0.060
0.848,0.025
0.852,0.040
0.856,0.045
0.860,0.025
0.864,0.025
0.868,0.040
0.872,0.030
0.876,0.020
0.880,0.020
0.884,0.015
0.888,0.020
0.892,0.020
0.896,0.005
0.900,0.015
0.904,0.010
0.908,0.040
0.912,0.010
0.916,0.015
0.920,0.025
0.924,0.015
0.928,0.010
0.932,0.020
0.936,-0.005
0.940,0.000
0.944,0.015
0.948,0.005
0.952,0.020
0.956,0.010
0.960,0.025
0.964,0.005
0.968,0.020
0.972,0.020
0.976,0.010
0.980,0.020
0.984,0.015
0.988,0.020
0.992,0.030
0.996,0.055
1.000,0.090
1.004,0.085
1.008,0.105
1.012,0.125
1.016,0.105
1.020,0.095
1.024,0.075
1.028,0.080
1.032,0.065
1.036,0.040
1.040,0.015
1.044,-0.020
1.048,-0.020
1.052,-0.035
1.056,-0.035
1.060,-0.075
1.064,-0.085
1.068,-0.080
1.072,-0.090
1.076,-0.060
1.080,-0.050
1.084,-0.035
1.088,-0.045
1.092,-0.040
1.096,-0.045
1.100,-0.030
1.104,-0.030
1.108,-0.010
1.112,0.005
1.116,0.025
1.120,-0.005
1.124,0.000
1.128,0.000
1.132,-0.015
1.136,0.000
1.140,-0.010
1.144,0.000
1.148,-0.030
1.152,-0.010
1.156,-0.030
1.160,-0.025
1.164,-0.010
1.168,-0.015
1.172,-0.035
1.176,-0.015
1.180,-0.025
1.184,-0.020
1.188,-0.010
1.192,0.045
1.196,0.040
1.200,-0.005
1.204,-0.045
1.208,-0.060
1.212,-0.130
1.216,-0.265
1.220,-0.525
1.224,-0.875
1.228,-1.210
1.232,-1.440
1.236,-1.515
1.240,-1.475
1.244,-1.200
1.248,-0.750
1.252,-0.335
1.256,-0.115
1.260,-0.080
1.264,-0.095
1.268,-0.125
1.272,-0.110
1.276,-0.095
1.280,-0.085
1.284,-0.025
1.288,0.070
1.292,0.095
1.296,0.090
1.300,0.065
1.304,0.090
1.308,0.105
1.312,0.115
1.316,0.130
1.320,0.115
1.324,0.110
1.328,0.155
1.332,0.125
1.336,0.130
1.340,0.115
1.344,0.110
1.348,0.120
1.352,0.120
1.356,0.125
1.360,0.110
1.364,0.105
1.368,0.125
1.372,0.140
1.376,0.140
1.380,0.140
1.384,0.120
1.388,0.125
1.392,0.125
1.396,0.140
1.400,0.110
1.404,0.120
1.408,0.130
1.412,0.120
1.416,0.100
1.420,0.110
1.424,0.100
1.428,0.110
1.432,0.090
1.436,0.120
1.440,0.085
1.444,0.085
1.448,0.105
1.452,0.090
1.456,0.100
1.460,0.090
1.464,0.080
1.468,0.075
1.472,0.065
1.476,0.075
1.480,0.075
1.484,0.045
1.488,0.055
1.492,0.035
1.496,0.055
1.500,0.045
1.504,0.035
1.508,0.050
1.512,0.035
1.516,0.020
1.520,0.005
1.524,0.025
1.528,0.025
1.532,0.010
1.536,0.015
1.540,0.000
1.544,0.020
1.548,0.020
1.552,0.010
1.556,0.005
1.560,0.005
1.564,0.045
1.568,0.015
1.572,0.035
1.576,0.030
1.580,0.035
1.584,0.045
1.588,0.035
1.592,0.035
1.596,0.025
1.600,0.065
1.604,0.045
1.608,0.055
1.612,0.055
1.616,0.070
1.620,0.050
1.624,0.055
1.628,0.050
1.632,0.050
1.636,0.040
1.640,0.050
1.644,0.070
1.648,0.070
1.652,0.045
1.656,0.080
1.660,0.080
1.664,0.080
1.668,0.070
1.672,0.060
1.676,0.065
1.680,0.075
1.684,0.060
1.688,0.070
1.692,0.045
1.696,0.070
1.700,0.055
1.704,0.035
1.708,0.055
1.712,0.055
1.716,0.050
1.720,0.060
1.724,0.060
1.728,0.025
1.732,0.050
1.736,0.015
1.740,0.035
1.744,0.030
1.748,0.020
1.752,0.030
1.756,0.030
1.760,0.015
1.764,0.010
1.768,0.030
1.772,0.020
1.776,0.030
1.780,0.020
1.784,0.015
1.788,0.025
1.792,0.025
1.796,0.015
1.800,0.035
1.804,0.025
1.808,0.035
1.812,0.025
1.816,0.000
1.820,0.030
1.824,0.025
1.828,0.030
1.832,0.015
1.836,0.010
1.840,0.010
1.844,0.005
1.848,0.020
1.852,0.005
1.856,-0.005
1.860,0.025
1.864,0.045
1.868,0.020
1.872,0.015
1.876,0.020
1.880,0.060
1.884,0.080
1.888,0.120
1.892,0.115
1.896,0.105
1.900,0.130
1.904,0.105
1.908,0.095
1.912,0.075
1.916,0.070
1.920,0.045
1.924,0.030
1.928,0.025
1.932,0.005
1.936,-0.015
1.940,-0.030
1.944,-0.040
1.948,-0.050
1.952,-0.065
1.956,-0.055
1.960,-0.040
1.964,-0.015
1.968,-0.010
1.972,-0.020
1.976,-0.035
1.980,-0.045
1.984,-0.015
1.988,0.020
1.992,0.030
1.996,0.045
2.000,0.025
2.004,0.020
2.008,0.015
2.012,0.000
2.016,0.030
2.020,0.010
2.024,0.005
2.028,0.005
2.032,-0.005
2.036,0.000
2.040,0.010
2.044,0.000
2.048,0.000
2.052,-0.005
2.056,0.000
2.060,-0.005
2.064,-0.010
2.068,0.000
2.072,0.020
2.076,0.065
2.080,0.035
2.084,-0.035
2.088,-0.075
2.092,-0.125
2.096,-0.185
2.100,-0.385
2.104,-0.675
2.108,-1.000
2.112,-1.255
2.116,-1.385
2.120,-1.360
2.124,-1.205
2.128,-0.825
2.132,-0.385
2.136,-0.160
2.140,-0.120
2.144,-0.140
2.148,-0.150
2.152,-0.160
2.156,-0.140
2.160,-0.110
2.164,-0.040
2.168,0.005
2.172,0.045
2.176,0.065
2.180,0.055
2.184,0.090
2.188,0.080
2.192,0.065
2.196,0.075
2.200,0.060
2.204,0.070
2.208,0.060
2.212,0.075
2.216,0.075
2.220,0.085
2.224,0.085
2.228,0.090
2.232,0.100
2.236,0.095
2.240,0.080
2.244,0.080
2.248,0.075
2.252,0.070
2.256,0.080
2.260,0.080
2.264,0.070
2.268,0.070
2.272,0.090
2.276,0.070
2.280,0.090
2.284,0.070
2.288,0.065
2.292,0.050
2.296,0.055
2.300,0.075
2.304,0.055
2.308,0.055
2.312,0.060
2.316,0.060
2.320,0.045
2.324,0.070
2.328,0.050
2.332,0.030
2.336,0.040
2.340,0.055
2.344,0.050
2.348,0.040
2.352,0.040
2.356,0.030
2.360,0.030
2.364,0.015
2.368,0.010
2.372,0.015
2.376,0.000
2.380,0.000
2.384,-0.010
2.388,-0.010
2.392,-0.035
2.396,-0.015
2.400,-0.020
2.404,-0.025
2.408,-0.025
2.412,-0.040
2.416,-0.025
2.420,-0.025
2.424,-0.020
2.428,-0.015
2.432,0.005
2.436,-0.005
2.440,0.000
2.444,0.000
2.448,-0.005
2.452,-0.005
2.456,0.000
2.460,0.000
2.464,0.000
2.468,0.000
2.472,0.000
2.476,0.000
2.480,-0.005
2.484,0.005
2.488,0.000
2.492,0.000
2.496,-0.005
2.500,0.020
2.504,0.005
2.508,0.005
2.512,0.015
2.516,-0.010
2.520,0.010
2.524,0.010
2.528,0.000
2.532,-0.010
2.536,0.010
2.540,0.010
2.544,0.000
2.548,0.005
2.552,0.000
2.556,0.000
2.560,0.000
2.564,0.000
2.568,-0.005
2.572,0.005
2.576,0.010
2.580,-0.005
2.584,-0.020
2.588,0.000
2.592,0.000
2.596,-0.010
2.600,-0.005
2.604,0.005
2.608,0.000
2.612,0.000
2.616,-0.005
2.620,-0.010
2.624,0.000
2.628,-0.005
2.632,0.000
2.636,0.005
2.640,-0.005
2.644,-0.015
2.648,-0.020
2.652,-0.005
2.656,0.005
2.660,-0.005
2.664,0.000
2.668,-0.005
2.672,0.000
2.676,0.000
2.680,0.000
2.684,0.000
2.688,-0.015
2.692,-0.025
2.696,-0.005
2.700,-0.015
2.704,0.000
2.708,0.005
2.712,0.000
2.716,-0.010
2.720,0.000
2.724,0.010
2.728,-0.010
2.732,0.030
2.736,0.055
2.740,0.075
2.744,0.080
2.748,0.100
2.752,0.090
2.756,0.085
2.760,0.075
2.764,0.055
2.768,0.065
2.772,0.025
2.776,0.005
2.780,0.000
2.784,-0.025
2.788,-0.050
2.792,-0.045
2.796,-0.075
2.800,-0.065
2.804,-0.080
2.808,-0.060
2.812,-0.080
2.816,-0.055
2.820,-0.055
2.824,-0.035
2.828,-0.050
2.832,-0.045
2.836,-0.035
2.840,0.000
2.844,0.030
2.848,0.010
2.852,0.020
2.856,0.015
2.860,0.005
2.864,-0.010
2.868,0.010
2.872,0.000
2.876,-0.020
2.880,-0.010
2.884,0.000
2.888,-0.015
2.892,-0.005
2.896,0.000
2.900,0.000
2.904,0.000
2.908,-0.005
2.912,-0.010
2.916,0.000
2.920,0.000
2.924,0.030
2.928,0.040
2.932,0.030
2.936,-0.015
2.940,-0.050
2.944,-0.085
2.948,-0.185
2.952,-0.355
2.956,-0.615
2.960,-0.905
2.964,-1.185
2.968,-1.300
2.972,-1.340
2.976,-1.190
2.980,-0.840
2.984,-0.430
2.988,-0.185
2.992,-0.120
2.996,-0.140
3.000,-0.135
3.004,-0.140
3.008,-0.130
3.012,-0.115
3.016,-0.040
3.020,0.010
3.024,0.045
3.028,0.085
3.032,0.090
3.036,0.085
3.040,0.075
3.044,0.105
3.048,0.115
3.052,0.100
3.056,0.090
3.060,0.100
3.064,0.095
3.068,0.100
3.072,0.105
3.076,0.100
3.080,0.060
3.084,0.095
3.088,0.095
3.092,0.110
3.096,0.080
3.100,0.090
3.104,0.095
3.108,0.075
3.112,0.085
3.116,0.075
3.120,0.090
3.124,0.075
3.128,0.090
3.132,0.090
3.136,0.110
3.140,0.100
3.144,0.060
3.148,0.090
3.152,0.080
3.156,0.075
3.160,0.100
3.164,0.085
3.168,0.060
3.172,0.070
3.176,0.080
3.180,0.070
3.184,0.070
3.188,0.055
3.192,0.055
3.196,0.060
3.200,0.070
3.204,0.055
3.208,0.050
3.212,0.025
3.216,0.040
3.220,0.020
3.224,0.015
3.228,0.005
3.232,0.005
3.236,0.010
3.240,0.000
3.244,0.000
3.248,-0.005
3.252,-0.015
3.256,-0.005
3.260,0.000
3.264,0.000
3.268,-0.015
3.272,0.000
3.276,0.020
3.280,0.000
3.284,0.000
3.288,0.010
3.292,0.000
3.296,0.015
3.300,0.020
3.304,0.010
3.308,0.025
3.312,0.020
3.316,0.010
3.320,0.025
3.324,0.030
3.328,0.035
3.332,0.020
3.336,0.020
3.340,0.035
3.344,0.040
3.348,0.025
3.352,0.060
3.356,0.040
3.360,0.045
3.364,0.025
3.368,0.065
3.372,0.060
3.376,0.060
3.380,0.050
3.384,0.045
3.388,0.045
3.392,0.055
3.396,0.045
3.400,0.055
3.404,0.050
3.408,0.025
3.412,0.030
3.416,0.035
3.420,0.055
3.424,0.055
3.428,0.045
3.432,0.045
3.436,0.025
3.440,0.040
3.444,0.020
3.448,0.050
3.452,0.050
3.456,0.020
3.460,0.030
3.464,0.035
3.468,0.035
3.472,0.040
3.476,0.040
3.480,0.040
3.484,0.035
3.488,0.030
3.492,0.005
3.496,0.020
3.500,0.020
3.504,0.020
3.508,0.025
3.512,0.035
3.516,0.030
3.520,0.025
3.524,0.030
3.528,0.050
3.532,0.015
3.536,0.035
3.540,0.015
3.544,0.010
3.548,0.030
3.552,0.035
3.556,0.010
3.560,0.040
3.564,0.025
3.568,0.040
3.572,0.025
3.576,0.025
3.580,0.025
3.584,0.025
3.588,0.025
3.592,0.045
3.596,0.025
3.600,0.035
3.604,0.060
3.608,0.065
3.612,0.110
3.616,0.130
3.620,0.115
3.624,0.155
3.628,0.155
3.632,0.135
3.636,0.150
3.640,0.100
3.644,0.075
3.648,0.080
3.652,0.070
3.656,0.040
3.660,0.025
3.664,-0.005
3.668,-0.030
3.672,-0.035
3.676,-0.045
3.680,-0.025
3.684,-0.030
3.688,-0.020
3.692,-0.010
3.696,-0.010
3.700,0.015
3.704,0.020
3.708,0.020
3.712,0.015
3.716,0.050
3.720,0.045
3.724,0.075
3.728,0.060
3.732,0.065
3.736,0.050
3.740,0.050
3.744,0.055
3.748,0.055
3.752,0.060
3.756,0.050
3.760,0.060
3.764,0.045
3.768,0.035
3.772,0.035
3.776,0.045
3.780,0.040
3.784,0.040
3.788,0.040
3.792,0.030
3.796,0.040
3.800,0.040
3.804,0.050
3.808,0.100
3.812,0.095
3.816,0.065
3.820,0.005
3.824,-0.005
3.828,-0.060
3.832,-0.225
3.836,-0.485
3.840,-0.825
3.844,-1.185
3.848,-1.395
3.852,-1.485
3.856,-1.470
3.860,-1.255
3.864,-0.825
3.868,-0.395
3.872,-0.150
3.876,-0.060
3.880,-0.060
3.884,-0.090
3.888,-0.080
3.892,-0.085
3.896,-0.050
3.900,-0.005
3.904,0.045
3.908,0.100
3.912,0.110
3.916,0.140
3.920,0.135
3.924,0.135
3.928,0.165
3.932,0.155
3.936,0.145
3.940,0.155
3.944,0.155
3.948,0.155
3.952,0.150
3.956,0.150
3.960,0.150
3.964,0.165
3.968,0.170
3.972,0.165
3.976,0.160
3.980,0.150
3.984,0.175
3.988,0.155
3.992,0.170
3.996,0.155
4.000,0.150
4.004,0.145
4.008,0.140
4.012,0.140
4.016,0.170
4.020,0.155
4.024,0.170
4.028,0.145
4.032,0.145
4.036,0.140
4.040,0.140
4.044,0.170
4.048,0.145
4.052,0.145
4.056,0.140
4.060,0.125
4.064,0.120
4.068,0.130
4.072,0.115
4.076,0.115
4.080,0.125
4.084,0.120
4.088,0.120
4.092,0.120
4.096,0.110
4.100,0.110
4.104,0.095
4.108,0.080
4.112,0.070
4.116,0.055
4.120,0.055
4.124,0.070
4.128,0.025
4.132,0.035
4.136,0.020
4.140,0.025
4.144,0.015
4.148,0.035
4.152,0.015
4.156,0.015
4.160,0.000
4.164,0.020
4.168,0.010
4.172,0.005
4.176,0.015
4.180,0.005
4.184,-0.005
4.188,0.000
4.192,0.010
4.196,0.015
4.200,0.010
4.204,0.025
4.208,0.015
4.212,0.015
4.216,0.025
4.220,0.025
4.224,0.040
4.228,0.020
4.232,0.040
4.236,0.025
4.240,0.040
4.244,0.040
4.248,0.035
4.252,0.035
4.256,0.035
4.260,0.055
4.264,0.055
4.268,0.055
4.272,0.060
4.276,0.075
4.280,0.065
4.284,0.065
4.288,0.040
4.292,0.040
4.296,0.055
4.300,0.065
4.304,0.055
4.308,0.045
4.312,0.040
4.316,0.035
4.320,0.040
4.324,0.055
4.328,0.050
4.332,0.045
4.336,0.055
4.340,0.035
4.344,0.025
4.348,0.035
4.352,0.020
4.356,0.020
4.360,0.010
4.364,0.025
4.368,0.035
4.372,0.025
4.376,0.020
4.380,0.030
4.384,0.020
4.388,0.000
4.392,0.000
4.396,0.010
4.400,0.000
4.404,0.010
4.408,0.025
4.412,0.020
4.416,0.015
4.420,0.010
4.424,0.030
4.428,-0.010
4.432,0.020
4.436,0.030
4.440,0.000
4.444,0.000
4.448,0.015
4.452,0.000
4.456,0.015
4.460,0.015
4.464,0.005
4.468,0.000
4.472,0.015
4.476,0.015
4.480,0.000
4.484,0.010
4.488,0.000
4.492,0.000
4.496,0.025
4.500,0.035
4.504,0.040
4.508,0.070
4.512,0.100
4.516,0.105
4.520,0.120
4.524,0.115
4.528,0.120
4.532,0.095
4.536,0.075
4.540,0.045
4.544,0.035
4.548,0.015
4.552,0.000
4.556,-0.040
4.560,-0.050
4.564,-0.035
4.568,-0.050
4.572,-0.080
4.576,-0.045
4.580,-0.040
4.584,-0.060
4.588,-0.040
4.592,-0.025
4.596,0.000
4.600,-0.020
4.604,-0.025
4.608,-0.025
4.612,0.015
4.616,0.045
4.620,0.040
4.624,0.040
4.628,0.020
4.632,0.005
4.636,0.025
4.640,0.035
4.644,0.055
4.648,0.045
4.652,0.030
4.656,0.035
4.660,0.025
4.664,0.030
4.668,0.025
4.672,0.050
4.676,0.030
4.680,0.010
4.684,0.020
4.688,0.025
4.692,0.010
4.696,0.035
4.700,0.075
4.704,0.065
4.708,0.020
4.712,-0.040
4.716,-0.070
4.720,-0.145
4.724,-0.335
4.728,-0.645
4.732,-0.980
4.736,-1.265
4.740,-1.470
4.744,-1.515
4.748,-1.385
4.752,-1.020
4.756,-0.545
4.760,-0.205
4.764,-0.080
4.768,-0.090
4.772,-0.110
4.776,-0.120
4.780,-0.125
4.784,-0.090
4.788,-0.040
4.792,0.020
4.796,0.065
4.800,0.095
4.804,0.125
4.808,0.110
4.812,0.105
4.816,0.100
4.820,0.110
4.824,0.095
4.828,0.120
4.832,0.135
4.836,0.150
4.840,0.135
4.844,0.135
4.848,0.140
4.852,0.140
4.856,0.140
4.860,0.145
4.864,0.140
4.868,0.140
4.872,0.115
4.876,0.145
4.880,0.160
4.884,0.135
4.888,0.130
4.892,0.130
4.896,0.125
4.900,0.120
4.904,0.085
4.908,0.115
4.912,0.120
4.916,0.125
4.920,0.115
4.924,0.120
4.928,0.090
4.932,0.110
4.936,0.090
4.940,0.085
4.944,0.090
4.948,0.090
4.952,0.090
4.956,0.080
4.960,0.090
4.964,0.100
4.968,0.090
4.972,0.085
4.976,0.075
4.980,0.060
4.984,0.060
4.988,0.060
4.992,0.060
4.996,0.020
5.000,0.005
5.004,0.005
5.008,0.005
5.012,-0.005
5.016,0.000
5.020,-0.020
5.024,-0.020
5.028,-0.020
5.032,-0.015
5.036,-0.030
5.040,-0.010
5.044,-0.035
5.048,-0.035
5.052,-0.025
5.056,-0.015
5.060,-0.020
5.064,-0.035
5.068,-0.035
5.072,-0.020
5.076,-0.025
5.080,-0.025
5.084,-0.035
5.088,-0.015
5.092,-0.020
5.096,-0.020
5.100,-0.010
5.104,0.000
5.108,-0.040
5.112,-0.030
5.116,-0.045
5.120,-0.025
5.124,-0.005
5.128,-0.020
5.132,-0.025
5.136,-0.010
5.140,-0.010
5.144,-0.025
5.148,-0.020
5.152,-0.035
5.156,-0.020
5.160,-0.010
5.164,-0.035
5.168,-0.010
5.172,-0.020
5.176,-0.025
5.180,-0.030
5.184,-0.020
5.188,-0.055
5.192,-0.025
5.196,-0.045
5.200,-0.045
5.204,-0.020
5.208,-0.045
5.212,-0.060
5.216,-0.065
5.220,-0.060
5.224,-0.050
5.228,-0.070
5.232,-0.060
5.236,-0.060
5.240,-0.045
5.244,-0.055
5.248,-0.070
5.252,-0.055
5.256,-0.065
5.260,-0.055
5.264,-0.045
5.268,-0.045
5.272,-0.070
5.276,-0.055
5.280,-0.075
5.284,-0.060
5.288,-0.065
5.292,-0.060
5.296,-0.070
5.300,-0.085
5.304,-0.075
5.308,-0.080
5.312,-0.070
5.316,-0.075
5.320,-0.070
5.324,-0.080
5.328,-0.080
5.332,-0.060
5.336,-0.065
5.340,-0.075
5.344,-0.080
5.348,-0.080
5.352,-0.075
5.356,-0.050
5.360,-0.020
5.364,0.005
5.368,0.000
5.372,0.020
5.376,0.015
5.380,0.025
5.384,0.010
5.388,-0.030
5.392,-0.015
5.396,-0.040
5.400,-0.065
5.404,-0.075
5.408,-0.115
5.412,-0.125
5.416,-0.130
5.420,-0.140
5.424,-0.140
5.428,-0.170
5.432,-0.160
5.436,-0.155
5.440,-0.145
5.444,-0.135
5.448,-0.145
5.452,-0.135
5.456,-0.125
5.460,-0.120
5.464,-0.090
5.468,-0.060
5.472,-0.065
5.476,-0.075
5.480,-0.080
5.484,-0.090
5.488,-0.100
5.492,-0.100
5.496,-0.105
5.500,-0.110
5.504,-0.095
5.508,-0.090
5.512,-0.105
5.516,-0.105
5.520,-0.110
5.524,-0.090
5.528,-0.105
5.532,-0.080
5.536,-0.100
5.540,-0.110
5.544,-0.095
5.548,-0.045
5.552,-0.040
5.556,-0.090
5.560,-0.125
5.564,-0.145
5.568,-0.215
5.572,-0.360
5.576,-0.605
5.580,-0.900
5.584,-1.215
5.588,-1.410
5.592,-1.465
5.596,-1.405
5.600,-1.105
5.604,-0.685
5.608,-0.355
5.612,-0.200
5.616,-0.190
5.620,-0.210
5.624,-0.225
5.628,-0.190
5.632,-0.175
5.636,-0.145
5.640,-0.065
5.644,-0.025
5.648,0.000
5.652,0.005
5.656,0.015
5.660,0.020
5.664,0.020
5.668,0.005
5.672,0.020
5.676,0.005
5.680,0.005
5.684,0.025
5.688,0.050
5.692,0.000
5.696,0.030
5.700,0.000
5.704,0.025
5.708,0.025
5.712,0.020
5.716,0.000
5.720,0.010
5.724,0.000
5.728,0.010
5.732,0.035
5.736,0.000
5.740,0.000
5.744,0.005
5.748,0.000
5.752,0.000
5.756,0.000
5.760,0.000
5.764,0.000
5.768,0.000
5.772,0.000
5.776,0.000
5.780,0.010
5.784,-0.005
5.788,-0.020
5.792,-0.020
5.796,-0.005
5.800,-0.015
5.804,-0.020
5.808,-0.025
5.812,-0.045
5.816,-0.040
5.820,-0.035
5.824,-0.040
5.828,-0.035
5.832,-0.045
5.836,-0.060
5.840,-0.070
5.844,-0.060
5.848,-0.070
5.852,-0.085
5.856,-0.100
5.860,-0.080
5.864,-0.110
5.868,-0.120
5.872,-0.115
5.876,-0.110
5.880,-0.100
5.884,-0.125
5.888,-0.105
5.892,-0.100
5.896,-0.095
5.900,-0.105
5.904,-0.100
5.908,-0.080
5.912,-0.080
5.916,-0.105
5.920,-0.105
5.924,-0.080
5.928,-0.095
5.932,-0.110
5.936,-0.105
5.940,-0.095
5.944,-0.090
5.948,-0.080
5.952,-0.085
5.956,-0.100
5.960,-0.075
5.964,-0.085
5.968,-0.090
5.972,-0.070
5.976,-0.055
5.980,-0.070
5.984,-0.085
5.988,-0.045
5.992,-0.080
5.996,-0.055
6.000,-0.060
6.004,-0.070
6.008,-0.080
6.012,-0.070
6.016,-0.100
6.020,-0.100
6.024,-0.095
6.028,-0.105
6.032,-0.090
6.036,-0.080
6.040,-0.100
6.044,-0.095
6.048,-0.095
6.052,-0.110
6.056,-0.115
6.060,-0.100
6.064,-0.120
6.068,-0.120
6.072,-0.130
6.076,-0.110
6.080,-0.130
6.084,-0.150
6.088,-0.135
6.092,-0.135
6.096,-0.120
6.100,-0.130
6.104,-0.160
6.108,-0.120
6.112,-0.130
6.116,-0.135
6.120,-0.140
6.124,-0.160
6.128,-0.150
6.132,-0.120
6.136,-0.155
6.140,-0.150
6.144,-0.150
6.148,-0.155
6.152,-0.120
6.156,-0.155
6.160,-0.140
6.164,-0.140
6.168,-0.185
6.172,-0.155
6.176,-0.150
6.180,-0.140
6.184,-0.175
6.188,-0.160
6.192,-0.155
6.196,-0.165
6.200,-0.160
6.204,-0.120
6.208,-0.115
6.212,-0.080
6.216,-0.060
6.220,-0.075
6.224,-0.055
6.228,-0.050
6.232,-0.060
6.236,-0.070
6.240,-0.080
6.244,-0.100
6.248,-0.135
6.252,-0.120
6.256,-0.150
6.260,-0.175
6.264,-0.180
6.268,-0.195
6.272,-0.215
6.276,-0.210
6.280,-0.195
6.284,-0.230
6.288,-0.225
6.292,-0.205
6.296,-0.165
6.300,-0.180
6.304,-0.190
6.308,-0.190
6.312,-0.155
6.316,-0.140
6.320,-0.140
6.324,-0.120
6.328,-0.120
6.332,-0.115
6.336,-0.120
6.340,-0.130
6.344,-0.145
6.348,-0.135
6.352,-0.135
6.356,-0.150
6.360,-0.135
6.364,-0.140
6.368,-0.125
6.372,-0.125
6.376,-0.135
6.380,-0.145
6.384,-0.140
6.388,-0.145
6.392,-0.160
6.396,-0.140
6.400,-0.110
6.404,-0.095
6.408,-0.115
6.412,-0.150
6.416,-0.190
6.420,-0.200
6.424,-0.285
6.428,-0.465
6.432,-0.745
6.436,-1.055
6.440,-1.290
6.444,-1.450
6.448,-1.465
6.452,-1.320
6.456,-0.980
6.460,-0.570
6.464,-0.310
6.468,-0.210
6.472,-0.220
6.476,-0.265
6.480,-0.260
6.484,-0.240
6.488,-0.210
6.492,-0.155
6.496,-0.115
6.500,-0.055
6.504,-0.035
6.508,-0.020
6.512,-0.040
6.516,-0.040
6.520,-0.040
6.524,-0.010
6.528,-0.015
6.532,-0.010
6.536,0.000
6.540,0.000
6.544,-0.015
6.548,0.010
6.552,0.000
6.556,0.000
6.560,0.000
6.564,-0.020
6.568,-0.010
6.572,-0.010
6.576,-0.010
6.580,-0.005
6.584,0.000
6.588,0.005
6.592,-0.005
6.596,0.005
6.600,0.010
6.604,0.000
6.608,0.005
6.612,0.005
6.616,0.000
6.620,0.005
6.624,0.020
6.628,0.000
6.632,0.005
6.636,0.015
6.640,0.010
6.644,-0.005
6.648,-0.005
6.652,0.000
6.656,-0.010
6.660,0.000
6.664,0.005
6.668,0.000
6.672,0.000
6.676,0.000
6.680,-0.015
6.684,-0.030
6.688,-0.035
6.692,-0.045
6.696,-0.040
6.700,-0.030
6.704,-0.055
6.708,-0.055
6.712,-0.055
6.716,-0.045
6.720,-0.045
6.724,-0.045
6.728,-0.075
6.732,-0.065
6.736,-0.065
6.740,-0.060
6.744,-0.070
6.748,-0.055
6.752,-0.060
6.756,-0.040
6.760,-0.050
6.764,-0.055
6.768,-0.060
6.772,-0.045
6.776,-0.025
6.780,-0.035
6.784,-0.025
6.788,-0.045
6.792,-0.040
6.796,-0.035
6.800,-0.045
6.804,-0.015
6.808,-0.040
6.812,-0.040
6.816,-0.035
6.820,-0.020
6.824,-0.015
6.828,-0.025
6.832,-0.015
6.836,-0.025
6.840,-0.030
6.844,-0.015
6.848,0.000
6.852,-0.020
6.856,-0.025
6.860,-0.015
6.864,-0.005
6.868,-0.020
6.872,-0.020
6.876,-0.035
6.880,-0.020
6.884,-0.035
6.888,-0.035
6.892,-0.030
6.896,-0.010
6.900,-0.025
6.904,-0.035
6.908,-0.035
6.912,-0.040
6.916,-0.020
6.920,-0.030
6.924,-0.030
6.928,-0.040
6.932,-0.020
6.936,-0.050
6.940,-0.050
6.944,-0.035
6.948,-0.040
6.952,-0.025
6.956,-0.030
6.960,-0.045
6.964,-0.020
6.968,-0.035
6.972,-0.025
6.976,-0.030
6.980,-0.065
6.984,-0.040
6.988,-0.055
6.992,-0.050
6.996,-0.050
7.000,-0.040
7.004,-0.045
7.008,-0.040
7.012,-0.050
7.016,-0.040
7.020,-0.045
7.024,-0.050
7.028,-0.045
7.032,-0.040
7.036,-0.050
7.040,-0.060
7.044,-0.045
7.048,-0.040
7.052,-0.045
7.056,-0.055
7.060,-0.055
7.064,-0.025
7.068,-0.010
7.072,0.000
7.076,0.020
7.080,0.030
7.084,0.055
7.088,0.060
7.092,0.075
7.096,0.045
7.100,0.035
7.104,0.015
7.108,-0.010
7.112,-0.010
7.116,-0.045
7.120,-0.065
7.124,-0.095
7.128,-0.100
7.132,-0.100
7.136,-0.115
7.140,-0.130
7.144,-0.140
7.148,-0.135
7.152,-0.125
7.156,-0.115
7.160,-0.105
7.164,-0.105
7.168,-0.105
7.172,-0.090
7.176,-0.090
7.180,-0.065
7.184,-0.040
7.188,-0.015
7.192,-0.020
7.196,-0.035
7.200,-0.055
7.204,-0.060
7.208,-0.065
7.212,-0.055
7.216,-0.050
7.220,-0.035
7.224,-0.045
7.228,-0.070
7.232,-0.065
7.236,-0.050
7.240,-0.065
7.244,-0.070
7.248,-0.095
7.252,-0.070
7.256,-0.040
7.260,-0.035
7.264,-0.005
7.268,0.015
7.272,-0.030
7.276,-0.100
7.280,-0.110
7.284,-0.175
7.288,-0.320
7.292,-0.555
7.296,-0.930
7.300,-1.240
7.304,-1.460
7.308,-1.580
7.312,-1.540
7.316,-1.280
7.320,-0.820
7.324,-0.410
7.328,-0.210
7.332,-0.145
7.336,-0.165
7.340,-0.175
7.344,-0.175
7.348,-0.180
7.352,-0.125
7.356,-0.080
7.360,-0.020
7.364,0.020
7.368,0.020
7.372,0.020
7.376,0.050
7.380,0.055
7.384,0.075
7.388,0.070
7.392,0.065
7.396,0.095
7.400,0.065
7.404,0.080
7.408,0.080
7.412,0.085
7.416,0.095
7.420,0.095
7.424,0.095
7.428,0.100
7.432,0.110
7.436,0.100
7.440,0.080
7.444,0.080
7.448,0.095
7.452,0.070
7.456,0.090
7.460,0.080
7.464,0.075
7.468,0.075
7.472,0.100
7.476,0.105
7.480,0.115
7.484,0.070
7.488,0.100
7.492,0.080
7.496,0.090
7.500,0.085
7.504,0.080
7.508,0.040
7.512,0.070
7.516,0.065
7.520,0.055
7.524,0.055
7.528,0.060
7.532,0.065
7.536,0.055
7.540,0.050
7.544,0.065
7.548,0.025
7.552,0.050
7.556,0.030
7.560,0.030
7.564,0.010
7.568,0.005
7.572,-0.010
7.576,-0.020
7.580,-0.015
7.584,-0.020
7.588,-0.015
7.592,-0.005
7.596,-0.005
7.600,-0.025
7.604,-0.015
7.608,-0.045
7.612,-0.035
7.616,-0.015
7.620,0.000
7.624,-0.005
7.628,-0.015
7.632,0.000
7.636,0.020
7.640,0.000
7.644,0.005
7.648,0.005
7.652,0.010
7.656,0.005
7.660,0.010
7.664,0.000
7.668,0.010
7.672,-0.015
7.676,0.035
7.680,0.005
7.684,0.020
7.688,0.025
7.692,0.025
7.696,0.040
7.700,0.025
7.704,0.015
7.708,0.020
7.712,0.040
7.716,0.040
7.720,0.030
7.724,0.030
7.728,0.035
7.732,0.040
7.736,0.040
7.740,0.045
7.744,0.030
7.748,0.050
7.752,0.045
7.756,0.025
7.760,0.010
7.764,0.010
7.768,0.025
7.772,0.015
7.776,0.010
7.780,0.005
7.784,0.000
7.788,0.020
7.792,0.010
7.796,0.000
7.800,0.000
7.804,0.000
7.808,0.025
7.812,0.005
7.816,0.000
7.820,0.000
7.824,0.000
7.828,0.000
7.832,-0.010
7.836,0.010
7.840,0.005
7.844,-0.005
7.848,0.005
7.852,0.000
7.856,0.005
7.860,0.020
7.864,0.000
7.868,0.005
7.872,0.000
7.876,-0.015
7.880,-0.015
7.884,-0.010
7.888,-0.020
7.892,-0.030
7.896,-0.025
7.900,0.000
7.904,-0.020
7.908,0.005
7.912,-0.020
7.916,-0.010
7.920,-0.005
7.924,0.000
7.928,-0.015
7.932,-0.010
7.936,-0.020
7.940,0.000
7.944,0.020
7.948,0.025
7.952,0.075
7.956,0.070
7.960,0.075
7.964,0.095
7.968,0.100
7.972,0.075
7.976,0.090
7.980,0.065
7.984,0.030
7.988,0.005
7.992,0.000
7.996,-0.030
8.000,-0.065
8.004,-0.050
8.008,-0.080
8.012,-0.085
8.016,-0.095
8.020,-0.080
8.024,-0.080
8.028,-0.080
8.032,-0.050
8.036,-0.055
8.040,-0.040
8.044,-0.055
8.048,-0.055
8.052,-0.050
8.056,-0.005
8.060,-0.010
8.064,0.005
8.068,0.000
8.072,0.010
8.076,-0.015
8.080,0.000
8.084,0.000
8.088,-0.005
8.092,-0.015
8.096,-0.010
8.100,-0.015
8.104,-0.025
8.108,-0.020
8.112,-0.035
8.116,-0.030
8.120,-0.005
8.124,-0.040
8.128,-0.035
8.132,-0.035
8.136,-0.030
8.140,-0.010
8.144,0.000
8.148,0.035
8.152,0.015
8.156,-0.040
8.160,-0.080
8.164,-0.110
8.168,-0.190
8.172,-0.375
8.176,-0.655
8.180,-0.960
8.184,-1.300
8.188,-1.480
8.192,-1.585
8.196,-1.535
8.200,-1.255
8.204,-0.780
8.208,-0.370
8.212,-0.160
8.216,-0.120
8.220,-0.140
8.224,-0.165
8.228,-0.170
8.232,-0.160
8.236,-0.090
8.240,-0.015
8.244,0.015
8.248,0.050
8.252,0.060
8.256,0.065
8.260,0.095
8.264,0.070
8.268,0.085
8.272,0.110
8.276,0.100
8.280,0.095
8.284,0.130
8.288,0.140
8.292,0.125
8.296,0.100
8.300,0.105
8.304,0.115
8.308,0.125
8.312,0.105
8.316,0.115
8.320,0.095
8.324,0.110
8.328,0.110
8.332,0.120
8.336,0.115
8.340,0.125
8.344,0.115
8.348,0.110
8.352,0.120
8.356,0.115
8.360,0.095
8.364,0.095
8.368,0.100
8.372,0.100
8.376,0.095
8.380,0.090
8.384,0.095
8.388,0.100
8.392,0.090
8.396,0.110
8.400,0.070
8.404,0.100
8.408,0.090
8.412,0.065
8.416,0.080
8.420,0.075
8.424,0.055
8.428,0.065
8.432,0.045
8.436,0.055
8.440,0.050
8.444,0.075
8.448,0.035
8.452,0.030
8.456,0.020
8.460,0.005
8.464,0.000
8.468,-0.005
8.472,-0.005
8.476,-0.025
8.480,-0.020
8.484,-0.030
8.488,-0.010
8.492,-0.050
8.496,-0.020
8.500,-0.030
8.504,-0.025
8.508,-0.025
8.512,-0.025
8.516,-0.020
8.520,0.000
8.524,-0.025
8.528,-0.010
8.532,0.005
8.536,-0.025
8.540,-0.040
8.544,-0.005
8.548,-0.010
8.552,-0.025
8.556,-0.015
8.560,-0.020
8.564,0.005
8.568,0.000
8.572,0.000
8.576,0.000
8.580,0.025
8.584,0.010
8.588,0.010
8.592,0.000
8.596,0.005
8.600,0.010
8.604,0.010
8.608,0.015
8.612,0.015
8.616,0.040
8.620,0.015
8.624,0.020
8.628,0.015
8.632,0.040
8.636,0.040
8.640,0.020
8.644,0.030
8.648,0.020
8.652,0.020
8.656,0.005
8.660,0.010
8.664,0.020
8.668,0.000
8.672,0.010
8.676,-0.020
8.680,0.000
8.684,0.020
8.688,0.010
8.692,0.000
8.696,0.000
8.700,0.005
8.704,0.015
8.708,0.005
8.712,0.005
8.716,0.005
8.720,-0.015
8.724,-0.015
8.728,-0.025
8.732,0.000
8.736,0.000
8.740,0.025
8.744,0.000
8.748,-0.020
8.752,0.015
8.756,0.000
8.760,0.000
8.764,0.000
8.768,0.005
8.772,0.000
8.776,0.000
8.780,-0.020
8.784,-0.005
8.788,-0.005
8.792,-0.015
8.796,0.000
8.800,-0.020
8.804,-0.015
8.808,-0.010
8.812,0.000
8.816,-0.010
8.820,0.005
8.824,0.010
8.828,0.035
8.832,0.055
8.836,0.070
8.840,0.075
8.844,0.060
8.848,0.080
8.852,0.070
8.856,0.060
8.860,0.045
8.864,0.035
8.868,0.015
8.872,-0.010
8.876,-0.040
8.880,-0.065
8.884,-0.055
8.888,-0.075
8.892,-0.085
8.896,-0.085
8.900,-0.080
8.904,-0.065
8.908,-0.070
8.912,-0.060
8.916,-0.070
8.920,-0.050
8.924,-0.055
8.928,-0.040
8.932,-0.030
8.936,-0.030
8.940,0.000
8.944,-0.010
8.948,-0.030
8.952,-0.025
8.956,-0.010
8.960,-0.005
8.964,-0.020
8.968,-0.030
8.972,0.010
8.976,-0.020
8.980,-0.015
8.984,-0.020
8.988,-0.020
8.992,-0.040
8.996,-0.025
9.000,-0.025
9.004,-0.020
9.008,-0.020
9.012,-0.025
9.016,0.000
9.020,0.025
9.024,0.030
9.028,-0.010
9.032,-0.050
9.036,-0.100
9.040,-0.130
9.044,-0.240
9.048,-0.460
9.052,-0.760
9.056,-1.060
9.060,-1.300
9.064,-1.425
9.068,-1.430
9.072,-1.235
9.076,-0.875
9.080,-0.425
9.084,-0.155
9.088,-0.105
9.092,-0.130
9.096,-0.125
9.100,-0.145
9.104,-0.140
9.108,-0.115
9.112,-0.075
9.116,-0.015
9.120,0.025
9.124,0.040
9.128,0.055
9.132,0.035
9.136,0.060
9.140,0.060
9.144,0.065
9.148,0.070
9.152,0.075
9.156,0.065
9.160,0.050
9.164,0.070
9.168,0.085
9.172,0.090
9.176,0.085
9.180,0.080
9.184,0.080
9.188,0.085
9.192,0.095
9.196,0.075
9.200,0.065
9.204,0.065
9.208,0.070
9.212,0.065
9.216,0.065
9.220,0.060
9.224,0.070
9.228,0.060
9.232,0.055
9.236,0.050
9.240,0.065
9.244,0.065
9.248,0.055
9.252,0.050
9.256,0.055
9.260,0.045
9.264,0.055
9.268,0.050
9.272,0.055
9.276,0.035
9.280,0.035
9.284,0.035
9.288,0.050
9.292,0.030
9.296,0.030
9.300,0.025
9.304,0.025
9.308,0.010
9.312,0.005
9.316,0.010
9.320,-0.020
9.324,-0.005
9.328,-0.005
9.332,-0.030
9.336,-0.020
9.340,-0.010
9.344,-0.040
9.348,-0.020
9.352,-0.020
9.356,-0.020
9.360,-0.055
9.364,-0.020
9.368,-0.040
9.372,-0.015
9.376,-0.030
9.380,-0.040
9.384,-0.030
9.388,-0.030
9.392,-0.010
9.396,-0.020
9.400,-0.020
9.404,-0.010
9.408,-0.005
9.412,0.000
9.416,-0.010
9.420,0.000
9.424,-0.015
9.428,-0.005
9.432,0.005
9.436,0.000
9.440,0.000
9.444,0.005
9.448,-0.010
9.452,0.020
9.456,0.005
9.460,0.000
9.464,0.000
9.468,0.020
9.472,0.015
9.476,0.005
9.480,0.000
9.484,0.010
9.488,0.020
9.492,0.000
9.496,0.005
9.500,-0.005
9.504,0.000
9.508,0.010
9.512,0.015
9.516,-0.005
9.520,-0.005
9.524,0.000
9.528,-0.005
9.532,-0.005
9.536,-0.010
9.540,-0.005
9.544,0.010
9.548,0.010
9.552,0.000
9.556,0.000
9.560,0.010
9.564,-0.020
9.568,-0.010
9.572,-0.015
9.576,0.000
9.580,0.000
9.584,-0.020
9.588,-0.005
9.592,-0.005
9.596,-0.035
9.600,-0.015
9.604,-0.020
9.608,-0.025
9.612,-0.020
9.616,-0.025
9.620,-0.015
9.624,0.005
9.628,0.005
9.632,-0.005
9.636,0.005
9.640,0.000
9.644,0.000
9.648,0.000
9.652,-0.035
9.656,-0.015
9.660,-0.020
9.664,0.000
9.668,-0.005
9.672,0.010
9.676,0.005
9.680,0.045
9.684,0.040
9.688,0.060
9.692,0.085
9.696,0.090
9.700,0.110
9.704,0.090
9.708,0.100
9.712,0.085
9.716,0.095
9.720,0.055
9.724,0.045
9.728,0.020
9.732,0.010
9.736,-0.010
9.740,-0.020
9.744,-0.065
9.748,-0.030
9.752,-0.060
9.756,-0.045
9.760,-0.045
9.764,-0.040
9.768,-0.025
9.772,-0.030
9.776,-0.030
9.780,-0.020
9.784,0.005
9.788,0.015
9.792,0.010
9.796,0.015
9.800,0.035
9.804,0.020
9.808,0.020
9.812,0.010
9.816,0.000
9.820,0.005
9.824,-0.005
9.828,-0.005
9.832,0.010
9.836,-0.010
9.840,0.010
9.844,0.020
9.848,-0.005
9.852,0.010
9.856,-0.005
9.860,0.010
9.864,0.005
9.868,0.020
9.872,0.045
9.876,0.060
9.880,0.040
9.884,-0.025
9.888,-0.055
9.892,-0.085
9.896,-0.220
9.900,-0.430
9.904,-0.740
9.908,-1.055
9.912,-1.235
9.916,-1.305
9.920,-1.260
9.924,-1.015
9.928,-0.610
9.932,-0.240
9.936,-0.125
9.940,-0.080
9.944,-0.130
9.948,-0.125
9.952,-0.105
9.956,-0.080
9.960,-0.030
9.964,0.015
9.968,0.050
9.972,0.095
9.976,0.090
9.980,0.085
9.984,0.100
9.988,0.100
9.992,0.085
9.996,0.080
