'Elapsed time','ECG1'
'seconds','mV'
0.000,-0.260
0.004,-0.275
0.008,-0.250
0.012,-0.235
0.016,-0.250
0.020,-0.250
0.024,-0.275
0.028,-0.310
0.032,-0.340
0.036,-0.310
0.040,-0.285
0.044,-0.175
0.048,0.005
0.052,0.285
0.056,0.570
0.060,0.770
0.064,0.785
0.068,0.445
0.072,-0.105
0.076,-0.580
0.080,-0.850
0.084,-0.870
0.088,-0.710
0.092,-0.525
0.096,-0.375
0.100,-0.290
0.104,-0.270
0.108,-0.260
0.112,-0.280
0.116,-0.290
0.120,-0.280
0.124,-0.275
0.128,-0.310
0.132,-0.320
0.136,-0.320
0.140,-0.365
0.144,-0.375
0.148,-0.385
0.152,-0.360
0.156,-0.330
0.160,-0.310
0.164,-0.280
0.168,-0.290
0.172,-0.280
0.176,-0.255
0.180,-0.275
0.184,-0.245
0.188,-0.225
0.192,-0.215
0.196,-0.230
0.200,-0.210
0.204,-0.205
0.208,-0.230
0.212,-0.180
0.216,-0.185
0.220,-0.155
0.224,-0.170
0.228,-0.170
0.232,-0.160
0.236,-0.145
0.240,-0.130
0.244,-0.120
0.248,-0.110
0.252,-0.090
0.256,-0.085
0.260,-0.075
0.264,-0.040
0.268,-0.025
0.272,-0.015
0.276,-0.020
0.280,-0.020
0.284,-0.010
0.288,-0.005
0.292,-0.015
0.296,0.000
0.300,-0.010
0.304,-0.025
0.308,-0.045
0.312,-0.090
0.316,-0.105
0.320,-0.090
0.324,-0.085
0.328,-0.085
0.332,-0.105
0.336,-0.095
0.340,-0.120
0.344,-0.145
0.348,-0.145
0.352,-0.170
0.356,-0.160
0.360,-0.170
0.364,-0.185
0.368,-0.215
0.372,-0.220
0.376,-0.230
0.380,-0.240
0.384,-0.245
0.388,-0.235
0.392,-0.245
0.396,-0.235
0.400,-0.250
0.404,-0.230
0.408,-0.250
0.412,-0.240
0.416,-0.240
0.420,-0.255
0.424,-0.275
0.428,-0.260
0.432,-0.250
0.436,-0.265
0.440,-0.300
0.444,-0.300
0.448,-0.320
0.452,-0.320
0.456,-0.330
0.460,-0.350
0.464,-0.360
0.468,-0.360
0.472,-0.370
0.476,-0.370
0.480,-0.370
0.484,-0.350
0.488,-0.340
0.492,-0.340
0.496,-0.320
0.500,-0.310
0.504,-0.295
0.508,-0.290
0.512,-0.290
0.516,-0.305
0.520,-0.265
0.524,-0.285
0.528,-0.270
0.532,-0.285
0.536,-0.270
0.540,-0.270
0.544,-0.270
0.548,-0.275
0.552,-0.255
0.556,-0.255
0.560,-0.270
0.564,-0.240
0.568,-0.250
0.572,-0.250
0.576,-0.265
0.580,-0.290
0.584,-0.280
0.588,-0.275
0.592,-0.285
0.596,-0.285
0.600,-0.280
0.604,-0.300
0.608,-0.325
0.612,-0.345
0.616,-0.350
0.620,-0.370
0.624,-0.360
0.628,-0.355
0.632,-0.345
0.636,-0.365
0.640,-0.365
0.644,-0.345
0.648,-0.325
0.652,-0.335
0.656,-0.335
0.660,-0.335
0.664,-0.360
0.668,-0.390
0.672,-0.395
0.676,-0.380
0.680,-0.310
0.684,-0.190
0.688,0.015
0.692,0.275
0.696,0.550
0.700,0.725
0.704,0.690
0.708,0.370
0.712,-0.115
0.716,-0.570
0.720,-0.885
0.724,-0.920
0.728,-0.780
0.732,-0.570
0.736,-0.390
0.740,-0.325
0.744,-0.285
0.748,-0.280
0.752,-0.270
0.756,-0.275
0.760,-0.250
0.764,-0.265
0.768,-0.295
0.772,-0.295
0.776,-0.315
0.780,-0.290
0.784,-0.290
0.788,-0.290
0.792,-0.300
0.796,-0.310
0.800,-0.300
0.804,-0.310
0.808,-0.305
0.812,-0.320
0.816,-0.300
0.820,-0.280
0.824,-0.290
0.828,-0.255
0.832,-0.260
0.836,-0.260
0.840,-0.255
0.844,-0.275
0.848,-0.255
0.852,-0.240
0.856,-0.205
0.860,-0.195
0.864,-0.170
0.868,-0.155
0.872,-0.155
0.876,-0.155
0.880,-0.125
0.884,-0.110
0.888,-0.070
0.892,-0.050
0.896,-0.035
0.900,-0.040
0.904,-0.030
0.908,-0.015
0.912,0.000
0.916,0.010
0.920,-0.005
0.924,0.015
0.928,0.015
0.932,0.020
0.936,0.025
0.940,0.015
0.944,0.015
0.948,0.010
0.952,0.025
0.956,0.035
0.960,0.040
0.964,0.010
0.968,-0.015
0.972,-0.030
0.976,-0.035
0.980,-0.085
0.984,-0.115
0.988,-0.135
0.992,-0.135
0.996,-0.170
1.000,-0.180
1.004,-0.210
1.008,-0.225
1.012,-0.235
1.016,-0.255
1.020,-0.260
1.024,-0.275
1.028,-0.260
1.032,-0.280
1.036,-0.285
1.040,-0.285
1.044,-0.290
1.048,-0.285
1.052,-0.275
1.056,-0.280
1.060,-0.265
1.064,-0.260
1.068,-0.240
1.072,-0.255
1.076,-0.270
1.080,-0.255
1.084,-0.265
1.088,-0.240
1.092,-0.255
1.096,-0.245
1.100,-0.225
1.104,-0.265
1.108,-0.240
1.112,-0.240
1.116,-0.240
1.120,-0.275
1.124,-0.240
1.128,-0.275
1.132,-0.280
1.136,-0.275
1.140,-0.295
1.144,-0.290
1.148,-0.300
1.152,-0.290
1.156,-0.290
1.160,-0.270
1.164,-0.300
1.168,-0.280
1.172,-0.285
1.176,-0.290
1.180,-0.270
1.184,-0.290
1.188,-0.305
1.192,-0.325
1.196,-0.320
1.200,-0.330
1.204,-0.335
1.208,-0.330
1.212,-0.330
1.216,-0.305
1.220,-0.315
1.224,-0.315
1.228,-0.280
1.232,-0.305
1.236,-0.265
1.240,-0.270
1.244,-0.265
1.248,-0.250
1.252,-0.240
1.256,-0.250
1.260,-0.290
1.264,-0.265
1.268,-0.255
1.272,-0.255
1.276,-0.275
1.280,-0.265
1.284,-0.265
1.288,-0.265
1.292,-0.260
1.296,-0.295
1.300,-0.265
1.304,-0.280
1.308,-0.265
1.312,-0.290
1.316,-0.270
1.320,-0.270
1.324,-0.290
1.328,-0.280
1.332,-0.285
1.336,-0.310
1.340,-0.300
1.344,-0.320
1.348,-0.300
1.352,-0.300
1.356,-0.295
1.360,-0.310
1.364,-0.325
1.368,-0.320
1.372,-0.310
1.376,-0.370
1.380,-0.420
1.384,-0.450
1.388,-0.445
1.392,-0.450
1.396,-0.360
1.400,-0.165
1.404,0.100
1.408,0.415
1.412,0.675
1.416,0.795
1.420,0.560
1.424,0.080
1.428,-0.455
1.432,-0.820
1.436,-0.935
1.440,-0.855
1.444,-0.700
1.448,-0.535
1.452,-0.420
1.456,-0.370
1.460,-0.335
1.464,-0.315
1.468,-0.315
1.472,-0.305
1.476,-0.295
1.480,-0.305
1.484,-0.295
1.488,-0.295
1.492,-0.315
1.496,-0.295
1.500,-0.295
1.504,-0.300
1.508,-0.310
1.512,-0.295
1.516,-0.315
1.520,-0.310
1.524,-0.305
1.528,-0.310
1.532,-0.320
1.536,-0.315
1.540,-0.295
1.544,-0.270
1.548,-0.290
1.552,-0.275
1.556,-0.260
1.560,-0.260
1.564,-0.240
1.568,-0.240
1.572,-0.235
1.576,-0.230
1.580,-0.220
1.584,-0.225
1.588,-0.240
1.592,-0.210
1.596,-0.215
1.600,-0.210
1.604,-0.190
1.608,-0.175
1.612,-0.145
1.616,-0.140
1.620,-0.110
1.624,-0.090
1.628,-0.060
1.632,-0.055
1.636,-0.035
1.640,-0.020
1.644,0.010
1.648,0.010
1.652,0.015
1.656,0.015
1.660,0.035
1.664,0.025
1.668,0.020
1.672,-0.015
1.676,-0.025
1.680,-0.045
1.684,-0.060
1.688,-0.070
1.692,-0.080
1.696,-0.070
1.700,-0.050
1.704,-0.080
1.708,-0.095
1.712,-0.105
1.716,-0.135
1.720,-0.160
1.724,-0.185
1.728,-0.200
1.732,-0.220
1.736,-0.250
1.740,-0.240
1.744,-0.250
1.748,-0.260
1.752,-0.255
1.756,-0.275
1.760,-0.275
1.764,-0.290
1.768,-0.295
1.772,-0.275
1.776,-0.295
1.780,-0.275
1.784,-0.295
1.788,-0.295
1.792,-0.280
1.796,-0.280
1.800,-0.275
1.804,-0.260
1.808,-0.270
1.812,-0.275
1.816,-0.265
1.820,-0.260
1.824,-0.265
1.828,-0.255
1.832,-0.245
1.836,-0.245
1.840,-0.225
1.844,-0.255
1.848,-0.275
1.852,-0.315
1.856,-0.320
1.860,-0.345
1.864,-0.320
1.868,-0.315
1.872,-0.265
1.876,-0.255
1.880,-0.250
1.884,-0.250
1.888,-0.255
1.892,-0.250
1.896,-0.250
1.900,-0.275
1.904,-0.295
1.908,-0.300
1.912,-0.290
1.916,-0.300
1.920,-0.280
1.924,-0.305
1.928,-0.295
1.932,-0.310
1.936,-0.310
1.940,-0.300
1.944,-0.315
1.948,-0.320
1.952,-0.330
1.956,-0.325
1.960,-0.320
1.964,-0.335
1.968,-0.305
1.972,-0.290
1.976,-0.305
1.980,-0.295
1.984,-0.265
1.988,-0.270
1.992,-0.265
1.996,-0.255
2.000,-0.255
2.004,-0.265
2.008,-0.310
2.012,-0.345
2.016,-0.375
2.020,-0.335
2.024,-0.255
2.028,-0.040
2.032,0.270
2.036,0.600
2.040,0.820
2.044,0.810
2.048,0.485
2.052,-0.050
2.056,-0.555
2.060,-0.840
2.064,-0.900
2.068,-0.805
2.072,-0.605
2.076,-0.460
2.080,-0.360
2.084,-0.320
2.088,-0.310
2.092,-0.305
2.096,-0.305
2.100,-0.325
2.104,-0.300
2.108,-0.330
2.112,-0.330
2.116,-0.320
2.120,-0.320
2.124,-0.310
2.128,-0.315
2.132,-0.320
2.136,-0.305
2.140,-0.295
2.144,-0.285
2.148,-0.290
2.152,-0.275
2.156,-0.265
2.160,-0.250
2.164,-0.250
2.168,-0.240
2.172,-0.210
2.176,-0.215
2.180,-0.215
2.184,-0.225
2.188,-0.225
2.192,-0.240
2.196,-0.215
2.200,-0.195
2.204,-0.160
2.208,-0.135
2.212,-0.130
2.216,-0.120
2.220,-0.135
2.224,-0.130
2.228,-0.095
2.232,-0.110
2.236,-0.100
2.240,-0.060
2.244,-0.050
2.248,-0.055
2.252,-0.075
2.256,-0.045
2.260,-0.045
2.264,-0.020
2.268,-0.025
2.272,-0.020
2.276,-0.025
2.280,-0.040
2.284,-0.050
2.288,-0.040
2.292,-0.060
2.296,-0.075
2.300,-0.095
2.304,-0.120
2.308,-0.145
2.312,-0.165
2.316,-0.190
2.320,-0.195
2.324,-0.220
2.328,-0.200
2.332,-0.220
2.336,-0.235
2.340,-0.235
2.344,-0.220
2.348,-0.220
2.352,-0.200
2.356,-0.225
2.360,-0.235
2.364,-0.255
2.368,-0.255
2.372,-0.270
2.376,-0.285
2.380,-0.265
2.384,-0.285
2.388,-0.320
2.392,-0.315
2.396,-0.335
2.400,-0.345
2.404,-0.335
2.408,-0.340
2.412,-0.335
2.416,-0.360
2.420,-0.340
2.424,-0.355
2.428,-0.350
2.432,-0.360
2.436,-0.375
2.440,-0.375
2.444,-0.375
2.448,-0.370
2.452,-0.370
2.456,-0.360
2.460,-0.395
2.464,-0.385
2.468,-0.385
2.472,-0.405
2.476,-0.395
2.480,-0.400
2.484,-0.380
2.488,-0.370
2.492,-0.330
2.496,-0.310
2.500,-0.285
2.504,-0.305
2.508,-0.305
2.512,-0.310
2.516,-0.295
2.520,-0.280
2.524,-0.295
2.528,-0.310
2.532,-0.290
2.536,-0.320
2.540,-0.315
2.544,-0.320
2.548,-0.310
2.552,-0.310
2.556,-0.320
2.560,-0.335
2.564,-0.340
2.568,-0.345
2.572,-0.340
2.576,-0.350
2.580,-0.330
2.584,-0.350
2.588,-0.360
2.592,-0.365
2.596,-0.365
2.600,-0.360
2.604,-0.355
2.608,-0.345
2.612,-0.360
2.616,-0.360
2.620,-0.360
2.624,-0.365
2.628,-0.370
2.632,-0.375
2.636,-0.375
2.640,-0.400
2.644,-0.360
2.648,-0.340
2.652,-0.335
2.656,-0.330
2.660,-0.335
2.664,-0.320
2.668,-0.335
2.672,-0.335
2.676,-0.310
2.680,-0.335
2.684,-0.330
2.688,-0.305
2.692,-0.310
2.696,-0.325
2.700,-0.325
2.704,-0.320
2.708,-0.360
2.712,-0.345
2.716,-0.360
2.720,-0.380
2.724,-0.445
2.728,-0.490
2.732,-0.540
2.736,-0.550
2.740,-0.505
2.744,-0.365
2.748,-0.100
2.752,0.220
2.756,0.570
2.760,0.785
2.764,0.685
2.768,0.220
2.772,-0.400
2.776,-0.910
2.780,-1.020
2.784,-0.885
2.788,-0.655
2.792,-0.485
2.796,-0.395
2.800,-0.365
2.804,-0.350
2.808,-0.330
2.812,-0.340
2.816,-0.345
2.820,-0.365
2.824,-0.350
2.828,-0.335
2.832,-0.330
2.836,-0.345
2.840,-0.330
2.844,-0.330
2.848,-0.320
2.852,-0.330
2.856,-0.320
2.860,-0.320
2.864,-0.320
2.868,-0.325
2.872,-0.315
2.876,-0.315
2.880,-0.285
2.884,-0.300
2.888,-0.320
2.892,-0.330
2.896,-0.325
2.900,-0.325
2.904,-0.300
2.908,-0.300
2.912,-0.285
2.916,-0.270
2.920,-0.290
2.924,-0.270
2.928,-0.250
2.932,-0.220
2.936,-0.180
2.940,-0.170
2.944,-0.145
2.948,-0.120
2.952,-0.125
2.956,-0.085
2.960,-0.040
2.964,-0.035
2.968,-0.005
2.972,0.000
2.976,0.000
2.980,0.030
2.984,0.035
2.988,0.035
2.992,0.040
2.996,0.040
3.000,0.025
3.004,0.025
3.008,0.025
3.012,0.000
3.016,0.000
3.020,-0.030
3.024,-0.050
3.028,-0.080
3.032,-0.110
3.036,-0.120
3.040,-0.160
3.044,-0.170
3.048,-0.180
3.052,-0.205
3.056,-0.235
3.060,-0.230
3.064,-0.255
3.068,-0.275
3.072,-0.320
3.076,-0.340
3.080,-0.360
3.084,-0.360
3.088,-0.360
3.092,-0.320
3.096,-0.320
3.100,-0.320
3.104,-0.330
3.108,-0.310
3.112,-0.310
3.116,-0.305
3.120,-0.315
3.124,-0.325
3.128,-0.340
3.132,-0.320
3.136,-0.330
3.140,-0.340
3.144,-0.345
3.148,-0.345
3.152,-0.355
3.156,-0.345
3.160,-0.340
3.164,-0.340
3.168,-0.330
3.172,-0.330
3.176,-0.335
3.180,-0.360
3.184,-0.335
3.188,-0.320
3.192,-0.335
3.196,-0.350
3.200,-0.340
3.204,-0.315
3.208,-0.300
3.212,-0.330
3.216,-0.315
3.220,-0.310
3.224,-0.340
3.228,-0.350
3.232,-0.360
3.236,-0.375
3.240,-0.405
3.244,-0.375
3.248,-0.325
3.252,-0.320
3.256,-0.310
3.260,-0.310
3.264,-0.320
3.268,-0.315
3.272,-0.325
3.276,-0.320
3.280,-0.330
3.284,-0.305
3.288,-0.320
3.292,-0.345
3.296,-0.330
3.300,-0.330
3.304,-0.345
3.308,-0.355
3.312,-0.350
3.316,-0.350
3.320,-0.355
3.324,-0.365
3.328,-0.355
3.332,-0.385
3.336,-0.395
3.340,-0.375
3.344,-0.405
3.348,-0.425
3.352,-0.465
3.356,-0.475
3.360,-0.440
3.364,-0.385
3.368,-0.220
3.372,0.060
3.376,0.370
3.380,0.660
3.384,0.745
3.388,0.530
3.392,-0.005
3.396,-0.565
3.400,-0.930
3.404,-1.000
3.408,-0.865
3.412,-0.650
3.416,-0.505
3.420,-0.435
3.424,-0.395
3.428,-0.380
3.432,-0.385
3.436,-0.385
3.440,-0.380
3.444,-0.380
3.448,-0.380
3.452,-0.370
3.456,-0.375
3.460,-0.375
3.464,-0.370
3.468,-0.385
3.472,-0.355
3.476,-0.375
3.480,-0.380
3.484,-0.385
3.488,-0.390
3.492,-0.375
3.496,-0.380
3.500,-0.375
3.504,-0.380
3.508,-0.360
3.512,-0.375
3.516,-0.345
3.520,-0.340
3.524,-0.315
3.528,-0.295
3.532,-0.270
3.536,-0.255
3.540,-0.250
3.544,-0.245
3.548,-0.220
3.552,-0.180
3.556,-0.165
3.560,-0.150
3.564,-0.145
3.568,-0.125
3.572,-0.105
3.576,-0.075
3.580,-0.040
3.584,-0.040
3.588,-0.025
3.592,-0.030
3.596,-0.020
3.600,-0.040
3.604,-0.010
3.608,0.000
3.612,-0.015
3.616,-0.030
3.620,-0.035
3.624,-0.040
3.628,-0.055
3.632,-0.105
3.636,-0.095
3.640,-0.140
3.644,-0.160
3.648,-0.180
3.652,-0.200
3.656,-0.245
3.660,-0.240
3.664,-0.245
3.668,-0.285
3.672,-0.285
3.676,-0.300
3.680,-0.320
3.684,-0.320
3.688,-0.355
3.692,-0.350
3.696,-0.345
3.700,-0.330
3.704,-0.345
3.708,-0.345
3.712,-0.335
3.716,-0.335
3.720,-0.330
3.724,-0.320
3.728,-0.335
3.732,-0.345
3.736,-0.340
3.740,-0.345
3.744,-0.340
3.748,-0.370
3.752,-0.370
3.756,-0.380
3.760,-0.390
3.764,-0.370
3.768,-0.390
3.772,-0.395
3.776,-0.390
3.780,-0.380
3.784,-0.390
3.788,-0.350
3.792,-0.355
3.796,-0.380
3.800,-0.375
3.804,-0.365
3.808,-0.365
3.812,-0.360
3.816,-0.410
3.820,-0.400
3.824,-0.360
3.828,-0.365
3.832,-0.375
3.836,-0.390
3.840,-0.390
3.844,-0.390
3.848,-0.365
3.852,-0.320
3.856,-0.320
3.860,-0.320
3.864,-0.320
3.868,-0.325
3.872,-0.315
3.876,-0.290
3.880,-0.300
3.884,-0.305
3.888,-0.310
3.892,-0.320
3.896,-0.345
3.900,-0.380
3.904,-0.455
3.908,-0.475
3.912,-0.455
3.916,-0.390
3.920,-0.200
3.924,0.090
3.928,0.375
3.932,0.650
3.936,0.735
3.940,0.460
3.944,-0.075
3.948,-0.635
3.952,-1.000
3.956,-0.995
3.960,-0.840
3.964,-0.640
3.968,-0.510
3.972,-0.435
3.976,-0.400
3.980,-0.375
3.984,-0.385
3.988,-0.400
3.992,-0.440
3.996,-0.405
4.000,-0.390
4.004,-0.380
4.008,-0.340
4.012,-0.320
4.016,-0.335
4.020,-0.335
4.024,-0.325
4.028,-0.320
4.032,-0.295
4.036,-0.290
4.040,-0.310
4.044,-0.305
4.048,-0.280
4.052,-0.285
4.056,-0.275
4.060,-0.290
4.064,-0.290
4.068,-0.280
4.072,-0.280
4.076,-0.275
4.080,-0.280
4.084,-0.280
4.088,-0.280
4.092,-0.245
4.096,-0.205
4.100,-0.210
4.104,-0.215
4.108,-0.185
4.112,-0.195
4.116,-0.180
4.120,-0.160
4.124,-0.145
4.128,-0.125
4.132,-0.095
4.136,-0.080
4.140,-0.085
4.144,-0.080
4.148,-0.095
4.152,-0.080
4.156,-0.065
4.160,-0.045
4.164,-0.015
4.168,-0.010
4.172,-0.010
4.176,0.000
4.180,0.005
4.184,0.000
4.188,0.000
4.192,-0.010
4.196,-0.045
4.200,-0.090
4.204,-0.130
4.208,-0.145
4.212,-0.175
4.216,-0.190
4.220,-0.210
4.224,-0.240
4.228,-0.260
4.232,-0.265
4.236,-0.305
4.240,-0.300
4.244,-0.305
4.248,-0.330
4.252,-0.325
4.256,-0.325
4.260,-0.340
4.264,-0.345
4.268,-0.340
4.272,-0.330
4.276,-0.340
4.280,-0.365
4.284,-0.380
4.288,-0.400
4.292,-0.400
4.296,-0.395
4.300,-0.395
4.304,-0.360
4.308,-0.330
4.312,-0.330
4.316,-0.325
4.320,-0.340
4.324,-0.325
4.328,-0.345
4.332,-0.350
4.336,-0.330
4.340,-0.305
4.344,-0.330
4.348,-0.305
4.352,-0.310
4.356,-0.330
4.360,-0.320
4.364,-0.340
4.368,-0.330
4.372,-0.335
4.376,-0.350
4.380,-0.350
4.384,-0.370
4.388,-0.360
4.392,-0.370
4.396,-0.370
4.400,-0.360
4.404,-0.340
4.408,-0.355
4.412,-0.365
4.416,-0.365
4.420,-0.350
4.424,-0.340
4.428,-0.340
4.432,-0.375
4.436,-0.370
4.440,-0.370
4.444,-0.385
4.448,-0.385
4.452,-0.400
4.456,-0.410
4.460,-0.440
4.464,-0.430
4.468,-0.430
4.472,-0.420
4.476,-0.390
4.480,-0.375
4.484,-0.350
4.488,-0.305
4.492,-0.310
4.496,-0.325
4.500,-0.340
4.504,-0.325
4.508,-0.335
4.512,-0.320
4.516,-0.330
4.520,-0.320
4.524,-0.330
4.528,-0.320
4.532,-0.325
4.536,-0.345
4.540,-0.340
4.544,-0.345
4.548,-0.335
4.552,-0.345
4.556,-0.355
4.560,-0.345
4.564,-0.375
4.568,-0.345
4.572,-0.370
4.576,-0.370
4.580,-0.340
4.584,-0.360
4.588,-0.380
4.592,-0.360
4.596,-0.365
4.600,-0.375
4.604,-0.370
4.608,-0.365
4.612,-0.380
4.616,-0.395
4.620,-0.390
4.624,-0.370
4.628,-0.375
4.632,-0.375
4.636,-0.405
4.640,-0.370
4.644,-0.365
4.648,-0.360
4.652,-0.395
4.656,-0.435
4.660,-0.465
4.664,-0.455
4.668,-0.470
4.672,-0.445
4.676,-0.350
4.680,-0.170
4.684,0.110
4.688,0.410
4.692,0.685
4.696,0.805
4.700,0.655
4.704,0.195
4.708,-0.345
4.712,-0.765
4.716,-0.930
4.720,-0.905
4.724,-0.750
4.728,-0.590
4.732,-0.445
4.736,-0.390
4.740,-0.355
4.744,-0.360
4.748,-0.360
4.752,-0.365
4.756,-0.370
4.760,-0.360
4.764,-0.375
4.768,-0.365
4.772,-0.365
4.776,-0.365
4.780,-0.350
4.784,-0.350
4.788,-0.350
4.792,-0.360
4.796,-0.370
4.800,-0.365
4.804,-0.360
4.808,-0.350
4.812,-0.340
4.816,-0.330
4.820,-0.300
4.824,-0.275
4.828,-0.245
4.832,-0.250
4.836,-0.235
4.840,-0.235
4.844,-0.235
4.848,-0.205
4.852,-0.190
4.856,-0.200
4.860,-0.220
4.864,-0.190
4.868,-0.175
4.872,-0.160
4.876,-0.160
4.880,-0.160
4.884,-0.120
4.888,-0.120
4.892,-0.095
4.896,-0.080
4.900,-0.080
4.904,-0.055
4.908,-0.060
4.912,-0.035
4.916,-0.015
4.920,-0.010
4.924,-0.010
4.928,0.005
4.932,0.020
4.936,0.000
4.940,0.020
4.944,0.000
4.948,-0.005
4.952,-0.010
4.956,0.005
4.960,-0.010
4.964,-0.015
4.968,-0.025
4.972,-0.060
4.976,-0.065
4.980,-0.095
4.984,-0.110
4.988,-0.130
4.992,-0.150
4.996,-0.165
5.000,-0.170
5.004,-0.185
5.008,-0.215
5.012,-0.235
5.016,-0.225
5.020,-0.255
5.024,-0.250
5.028,-0.260
5.032,-0.265
5.036,-0.250
5.040,-0.280
5.044,-0.275
5.048,-0.285
5.052,-0.315
5.056,-0.310
5.060,-0.310
5.064,-0.320
5.068,-0.340
5.072,-0.340
5.076,-0.320
5.080,-0.315
5.084,-0.315
5.088,-0.335
5.092,-0.330
5.096,-0.310
5.100,-0.280
5.104,-0.285
5.108,-0.295
5.112,-0.280
5.116,-0.260
5.120,-0.250
5.124,-0.270
5.128,-0.245
5.132,-0.245
5.136,-0.245
5.140,-0.245
5.144,-0.240
5.148,-0.240
5.152,-0.240
5.156,-0.245
5.160,-0.245
5.164,-0.225
5.168,-0.235
5.172,-0.230
5.176,-0.230
5.180,-0.240
5.184,-0.245
5.188,-0.250
5.192,-0.270
5.196,-0.275
5.200,-0.285
5.204,-0.300
5.208,-0.305
5.212,-0.315
5.216,-0.300
5.220,-0.315
5.224,-0.315
5.228,-0.335
5.232,-0.340
5.236,-0.345
5.240,-0.355
5.244,-0.360
5.248,-0.365
5.252,-0.380
5.256,-0.350
5.260,-0.340
5.264,-0.290
5.268,-0.285
5.272,-0.285
5.276,-0.285
5.280,-0.280
5.284,-0.260
5.288,-0.265
5.292,-0.255
5.296,-0.260
5.300,-0.255
5.304,-0.265
5.308,-0.265
5.312,-0.265
5.316,-0.255
5.320,-0.245
5.324,-0.245
5.328,-0.260
5.332,-0.250
5.336,-0.255
5.340,-0.260
5.344,-0.280
5.348,-0.265
5.352,-0.290
5.356,-0.290
5.360,-0.315
5.364,-0.320
5.368,-0.335
5.372,-0.375
5.376,-0.420
5.380,-0.465
5.384,-0.460
5.388,-0.440
5.392,-0.350
5.396,-0.145
5.400,0.130
5.404,0.430
5.408,0.670
5.412,0.740
5.416,0.485
5.420,-0.060
5.424,-0.580
5.428,-0.945
5.432,-1.040
5.436,-0.965
5.440,-0.765
5.444,-0.595
5.448,-0.445
5.452,-0.370
5.456,-0.335
5.460,-0.345
5.464,-0.335
5.468,-0.315
5.472,-0.315
5.476,-0.325
5.480,-0.330
5.484,-0.300
5.488,-0.305
5.492,-0.295
5.496,-0.295
5.500,-0.300
5.504,-0.275
5.508,-0.295
5.512,-0.290
5.516,-0.280
5.520,-0.280
5.524,-0.290
5.528,-0.315
5.532,-0.310
5.536,-0.305
5.540,-0.330
5.544,-0.295
5.548,-0.305
5.552,-0.305
5.556,-0.290
5.560,-0.295
5.564,-0.290
5.568,-0.270
5.572,-0.265
5.576,-0.260
5.580,-0.225
5.584,-0.230
5.588,-0.210
5.592,-0.190
5.596,-0.185
5.600,-0.150
5.604,-0.155
5.608,-0.140
5.612,-0.130
5.616,-0.110
5.620,-0.075
5.624,-0.045
5.628,-0.015
5.632,0.015
5.636,0.040
5.640,0.035
5.644,0.050
5.648,0.050
5.652,0.055
5.656,0.055
5.660,0.055
5.664,0.050
5.668,0.035
5.672,0.010
5.676,0.010
5.680,-0.010
5.684,-0.030
5.688,-0.080
5.692,-0.105
5.696,-0.135
5.700,-0.170
5.704,-0.195
5.708,-0.210
5.712,-0.240
5.716,-0.285
5.720,-0.280
5.724,-0.290
5.728,-0.300
5.732,-0.310
5.736,-0.340
5.740,-0.320
5.744,-0.350
5.748,-0.335
5.752,-0.340
5.756,-0.350
5.760,-0.350
5.764,-0.335
5.768,-0.305
5.772,-0.310
5.776,-0.300
5.780,-0.285
5.784,-0.310
5.788,-0.275
5.792,-0.265
5.796,-0.280
5.800,-0.275
5.804,-0.290
5.808,-0.280
5.812,-0.265
5.816,-0.255
5.820,-0.275
5.824,-0.275
5.828,-0.270
5.832,-0.290
5.836,-0.325
5.840,-0.315
5.844,-0.305
5.848,-0.300
5.852,-0.320
5.856,-0.335
5.860,-0.330
5.864,-0.345
5.868,-0.330
5.872,-0.325
5.876,-0.325
5.880,-0.345
5.884,-0.355
5.888,-0.355
5.892,-0.360
5.896,-0.360
5.900,-0.360
5.904,-0.345
5.908,-0.350
5.912,-0.360
5.916,-0.320
5.920,-0.290
5.924,-0.285
5.928,-0.305
5.932,-0.315
5.936,-0.315
5.940,-0.305
5.944,-0.300
5.948,-0.280
5.952,-0.280
5.956,-0.295
5.960,-0.275
5.964,-0.270
5.968,-0.265
5.972,-0.245
5.976,-0.250
5.980,-0.245
5.984,-0.240
5.988,-0.230
5.992,-0.245
5.996,-0.245
6.000,-0.250
6.004,-0.245
6.008,-0.240
6.012,-0.260
6.016,-0.275
6.020,-0.275
6.024,-0.270
6.028,-0.265
6.032,-0.280
6.036,-0.285
6.040,-0.305
6.044,-0.300
6.048,-0.300
6.052,-0.325
6.056,-0.330
6.060,-0.345
6.064,-0.360
6.068,-0.340
6.072,-0.340
6.076,-0.340
6.080,-0.320
6.084,-0.320
6.088,-0.320
6.092,-0.320
6.096,-0.320
6.100,-0.350
6.104,-0.385
6.108,-0.430
6.112,-0.450
6.116,-0.435
6.120,-0.380
6.124,-0.215
6.128,0.050
6.132,0.355
6.136,0.670
6.140,0.830
6.144,0.710
6.148,0.230
6.152,-0.335
6.156,-0.775
6.160,-0.940
6.164,-0.855
6.168,-0.665
6.172,-0.475
6.176,-0.340
6.180,-0.290
6.184,-0.280
6.188,-0.300
6.192,-0.310
6.196,-0.340
6.200,-0.330
6.204,-0.325
6.208,-0.350
6.212,-0.360
6.216,-0.320
6.220,-0.315
6.224,-0.305
6.228,-0.295
6.232,-0.290
6.236,-0.300
6.240,-0.310
6.244,-0.305
6.248,-0.300
6.252,-0.285
6.256,-0.275
6.260,-0.280
6.264,-0.255
6.268,-0.260
6.272,-0.260
6.276,-0.235
6.280,-0.215
6.284,-0.220
6.288,-0.200
6.292,-0.210
6.296,-0.200
6.300,-0.200
6.304,-0.175
6.308,-0.185
6.312,-0.165
6.316,-0.145
6.320,-0.130
6.324,-0.115
6.328,-0.110
6.332,-0.105
6.336,-0.080
6.340,-0.065
6.344,-0.040
6.348,0.005
6.352,0.015
6.356,0.035
6.360,0.030
6.364,0.070
6.368,0.075
6.372,0.070
6.376,0.070
6.380,0.070
6.384,0.060
6.388,0.065
6.392,0.045
6.396,0.005
6.400,0.005
6.404,-0.005
6.408,-0.050
6.412,-0.090
6.416,-0.110
6.420,-0.125
6.424,-0.155
6.428,-0.145
6.432,-0.155
6.436,-0.170
6.440,-0.190
6.444,-0.210
6.448,-0.200
6.452,-0.225
6.456,-0.235
6.460,-0.250
6.464,-0.275
6.468,-0.285
6.472,-0.280
6.476,-0.295
6.480,-0.275
6.484,-0.295
6.488,-0.300
6.492,-0.320
6.496,-0.320
6.500,-0.320
6.504,-0.315
6.508,-0.335
6.512,-0.320
6.516,-0.340
6.520,-0.320
6.524,-0.310
6.528,-0.300
6.532,-0.310
6.536,-0.320
6.540,-0.310
6.544,-0.285
6.548,-0.285
6.552,-0.300
6.556,-0.280
6.560,-0.295
6.564,-0.300
6.568,-0.315
6.572,-0.305
6.576,-0.295
6.580,-0.300
6.584,-0.300
6.588,-0.300
6.592,-0.265
6.596,-0.275
6.600,-0.280
6.604,-0.285
6.608,-0.270
6.612,-0.290
6.616,-0.290
6.620,-0.275
6.624,-0.270
6.628,-0.280
6.632,-0.300
6.636,-0.285
6.640,-0.285
6.644,-0.285
6.648,-0.300
6.652,-0.320
6.656,-0.320
6.660,-0.320
6.664,-0.360
6.668,-0.370
6.672,-0.345
6.676,-0.335
6.680,-0.320
6.684,-0.320
6.688,-0.330
6.692,-0.340
6.696,-0.335
6.700,-0.315
6.704,-0.310
6.708,-0.320
6.712,-0.290
6.716,-0.290
6.720,-0.300
6.724,-0.315
6.728,-0.305
6.732,-0.290
6.736,-0.275
6.740,-0.285
6.744,-0.280
6.748,-0.270
6.752,-0.260
6.756,-0.260
6.760,-0.265
6.764,-0.280
6.768,-0.270
6.772,-0.280
6.776,-0.280
6.780,-0.300
6.784,-0.290
6.788,-0.290
6.792,-0.295
6.796,-0.320
6.800,-0.310
6.804,-0.305
6.808,-0.320
6.812,-0.350
6.816,-0.340
6.820,-0.320
6.824,-0.355
6.828,-0.345
6.832,-0.345
6.836,-0.335
6.840,-0.345
6.844,-0.340
6.848,-0.325
6.852,-0.355
6.856,-0.395
6.860,-0.445
6.864,-0.440
6.868,-0.400
6.872,-0.295
6.876,-0.065
6.880,0.220
6.884,0.520
6.888,0.785
6.892,0.825
6.896,0.470
6.900,-0.090
6.904,-0.620
6.908,-0.885
6.912,-0.885
6.916,-0.685
6.920,-0.510
6.924,-0.350
6.928,-0.285
6.932,-0.280
6.936,-0.270
6.940,-0.275
6.944,-0.265
6.948,-0.255
6.952,-0.275
6.956,-0.280
6.960,-0.270
6.964,-0.285
6.968,-0.290
6.972,-0.310
6.976,-0.315
6.980,-0.315
6.984,-0.320
6.988,-0.320
6.992,-0.315
6.996,-0.305
7.000,-0.300
7.004,-0.275
7.008,-0.240
7.012,-0.225
7.016,-0.235
7.020,-0.225
7.024,-0.215
7.028,-0.190
7.032,-0.195
7.036,-0.180
7.040,-0.190
7.044,-0.155
7.048,-0.150
7.052,-0.145
7.056,-0.150
7.060,-0.130
7.064,-0.115
7.068,-0.115
7.072,-0.100
7.076,-0.075
7.080,-0.075
7.084,-0.070
7.088,-0.065
7.092,-0.040
7.096,0.000
7.100,0.030
7.104,0.035
7.108,0.045
7.112,0.050
7.116,0.055
7.120,0.050
7.124,0.015
7.128,0.015
7.132,0.010
7.136,0.010
7.140,0.015
7.144,0.005
7.148,-0.005
7.152,-0.025
7.156,-0.020
7.160,-0.040
7.164,-0.075
7.168,-0.060
7.172,-0.095
7.176,-0.095
7.180,-0.115
7.184,-0.125
7.188,-0.155
7.192,-0.170
7.196,-0.185
7.200,-0.180
7.204,-0.195
7.208,-0.195
7.212,-0.205
7.216,-0.230
7.220,-0.230
7.224,-0.240
7.228,-0.245
7.232,-0.275
7.236,-0.300
7.240,-0.305
7.244,-0.320
7.248,-0.295
7.252,-0.300
7.256,-0.315
7.260,-0.320
7.264,-0.340
7.268,-0.315
7.272,-0.305
7.276,-0.290
7.280,-0.295
7.284,-0.300
7.288,-0.295
7.292,-0.305
7.296,-0.285
7.300,-0.295
7.304,-0.285
7.308,-0.280
7.312,-0.275
7.316,-0.260
7.320,-0.260
7.324,-0.245
7.328,-0.250
7.332,-0.235
7.336,-0.240
7.340,-0.240
7.344,-0.235
7.348,-0.245
7.352,-0.250
7.356,-0.265
7.360,-0.240
7.364,-0.270
7.368,-0.270
7.372,-0.275
7.376,-0.285
7.380,-0.295
7.384,-0.325
7.388,-0.335
7.392,-0.345
7.396,-0.355
7.400,-0.355
7.404,-0.320
7.408,-0.320
7.412,-0.305
7.416,-0.280
7.420,-0.295
7.424,-0.310
7.428,-0.295
7.432,-0.290
7.436,-0.305
7.440,-0.340
7.444,-0.400
7.448,-0.460
7.452,-0.435
7.456,-0.385
7.460,-0.235
7.464,0.050
7.468,0.385
7.472,0.685
7.476,0.835
7.480,0.645
7.484,0.160
7.488,-0.370
7.492,-0.810
7.496,-0.920
7.500,-0.825
7.504,-0.670
7.508,-0.470
7.512,-0.370
7.516,-0.315
7.520,-0.320
7.524,-0.315
7.528,-0.320
7.532,-0.320
7.536,-0.330
7.540,-0.335
7.544,-0.355
7.548,-0.330
7.552,-0.330
7.556,-0.310
7.560,-0.305
7.564,-0.300
7.568,-0.280
7.572,-0.290
7.576,-0.280
7.580,-0.275
7.584,-0.280
7.588,-0.265
7.592,-0.290
7.596,-0.260
7.600,-0.250
7.604,-0.265
7.608,-0.235
7.612,-0.210
7.616,-0.215
7.620,-0.210
7.624,-0.205
7.628,-0.170
7.632,-0.155
7.636,-0.130
7.640,-0.115
7.644,-0.110
7.648,-0.080
7.652,-0.080
7.656,-0.085
7.660,-0.055
7.664,-0.030
7.668,-0.015
7.672,0.000
7.676,0.010
7.680,0.015
7.684,0.030
7.688,0.015
7.692,0.020
7.696,0.030
7.700,0.010
7.704,0.010
7.708,0.020
7.712,0.030
7.716,0.020
7.720,0.010
7.724,0.000
7.728,-0.015
7.732,-0.025
7.736,-0.045
7.740,-0.080
7.744,-0.115
7.748,-0.130
7.752,-0.135
7.756,-0.150
7.760,-0.165
7.764,-0.185
7.768,-0.200
7.772,-0.205
7.776,-0.225
7.780,-0.265
7.784,-0.255
7.788,-0.275
7.792,-0.260
7.796,-0.245
7.800,-0.250
7.804,-0.270
7.808,-0.265
7.812,-0.265
7.816,-0.270
7.820,-0.260
7.824,-0.265
7.828,-0.255
7.832,-0.265
7.836,-0.290
7.840,-0.285
7.844,-0.270
7.848,-0.265
7.852,-0.280
7.856,-0.280
7.860,-0.280
7.864,-0.260
7.868,-0.250
7.872,-0.265
7.876,-0.275
7.880,-0.275
7.884,-0.250
7.888,-0.270
7.892,-0.245
7.896,-0.260
7.900,-0.245
7.904,-0.240
7.908,-0.240
7.912,-0.225
7.916,-0.230
7.920,-0.235
7.924,-0.230
7.928,-0.225
7.932,-0.210
7.936,-0.215
7.940,-0.190
7.944,-0.210
7.948,-0.210
7.952,-0.240
7.956,-0.235
7.960,-0.245
7.964,-0.255
7.968,-0.265
7.972,-0.280
7.976,-0.275
7.980,-0.265
7.984,-0.285
7.988,-0.270
7.992,-0.315
7.996,-0.300
8.000,-0.315
8.004,-0.335
8.008,-0.330
8.012,-0.305
8.016,-0.275
8.020,-0.265
8.024,-0.240
8.028,-0.230
8.032,-0.240
8.036,-0.260
8.040,-0.220
8.044,-0.250
8.048,-0.220
8.052,-0.235
8.056,-0.230
8.060,-0.230
8.064,-0.230
8.068,-0.240
8.072,-0.235
8.076,-0.230
8.080,-0.235
8.084,-0.230
8.088,-0.240
8.092,-0.235
8.096,-0.205
8.100,-0.220
8.104,-0.230
8.108,-0.220
8.112,-0.250
8.116,-0.230
8.120,-0.245
8.124,-0.230
8.128,-0.260
8.132,-0.255
8.136,-0.250
8.140,-0.280
8.144,-0.335
8.148,-0.375
8.152,-0.385
8.156,-0.375
8.160,-0.285
8.164,-0.075
8.168,0.190
8.172,0.530
8.176,0.770
8.180,0.815
8.184,0.550
8.188,-0.005
8.192,-0.560
8.196,-0.895
8.200,-0.925
8.204,-0.800
8.208,-0.605
8.212,-0.440
8.216,-0.345
8.220,-0.310
8.224,-0.290
8.228,-0.290
8.232,-0.295
8.236,-0.290
8.240,-0.295
8.244,-0.265
8.248,-0.285
8.252,-0.265
8.256,-0.260
8.260,-0.260
8.264,-0.260
8.268,-0.265
8.272,-0.250
8.276,-0.260
8.280,-0.225
8.284,-0.240
8.288,-0.220
8.292,-0.230
8.296,-0.235
8.300,-0.225
8.304,-0.220
8.308,-0.225
8.312,-0.225
8.316,-0.245
8.320,-0.240
8.324,-0.235
8.328,-0.255
8.332,-0.275
8.336,-0.275
8.340,-0.265
8.344,-0.275
8.348,-0.235
8.352,-0.200
8.356,-0.190
8.360,-0.175
8.364,-0.150
8.368,-0.135
8.372,-0.135
8.376,-0.105
8.380,-0.065
8.384,-0.045
8.388,-0.025
8.392,-0.030
8.396,0.000
8.400,0.020
8.404,0.000
8.408,0.025
8.412,0.040
8.416,0.055
8.420,0.020
8.424,0.025
8.428,0.005
8.432,0.005
8.436,-0.020
8.440,-0.025
8.444,-0.010
8.448,-0.045
8.452,-0.065
8.456,-0.100
8.460,-0.120
8.464,-0.125
8.468,-0.155
8.472,-0.175
8.476,-0.165
8.480,-0.205
8.484,-0.225
8.488,-0.210
8.492,-0.245
8.496,-0.265
8.500,-0.300
8.504,-0.295
8.508,-0.300
8.512,-0.320
8.516,-0.310
8.520,-0.350
8.524,-0.320
8.528,-0.300
8.532,-0.300
8.536,-0.280
8.540,-0.290
8.544,-0.275
8.548,-0.305
8.552,-0.300
8.556,-0.300
8.560,-0.305
8.564,-0.310
8.568,-0.320
8.572,-0.290
8.576,-0.290
8.580,-0.280
8.584,-0.295
8.588,-0.295
8.592,-0.280
8.596,-0.275
8.600,-0.285
8.604,-0.280
8.608,-0.275
8.612,-0.265
8.616,-0.270
8.620,-0.270
8.624,-0.295
8.628,-0.295
8.632,-0.280
8.636,-0.300
8.640,-0.300
8.644,-0.330
8.648,-0.330
8.652,-0.320
8.656,-0.345
8.660,-0.335
8.664,-0.320
8.668,-0.325
8.672,-0.350
8.676,-0.355
8.680,-0.350
8.684,-0.405
8.688,-0.420
8.692,-0.395
8.696,-0.400
8.700,-0.390
8.704,-0.345
8.708,-0.330
8.712,-0.325
8.716,-0.335
8.720,-0.335
8.724,-0.320
8.728,-0.320
8.732,-0.295
8.736,-0.310
8.740,-0.295
8.744,-0.290
8.748,-0.285
8.752,-0.295
8.756,-0.295
8.760,-0.295
8.764,-0.285
8.768,-0.265
8.772,-0.280
8.776,-0.265
8.780,-0.240
8.784,-0.245
8.788,-0.250
8.792,-0.250
8.796,-0.260
8.800,-0.255
8.804,-0.260
8.808,-0.275
8.812,-0.325
8.816,-0.380
8.820,-0.380
8.824,-0.385
8.828,-0.300
8.832,-0.120
8.836,0.125
8.840,0.420
8.844,0.675
8.848,0.740
8.852,0.530
8.856,0.020
8.860,-0.550
8.864,-0.935
8.868,-1.000
8.872,-0.905
8.876,-0.675
8.880,-0.510
8.884,-0.405
8.888,-0.355
8.892,-0.315
8.896,-0.315
8.900,-0.310
8.904,-0.310
8.908,-0.305
8.912,-0.290
8.916,-0.305
8.920,-0.280
8.924,-0.275
8.928,-0.275
8.932,-0.260
8.936,-0.240
8.940,-0.235
8.944,-0.210
8.948,-0.220
8.952,-0.220
8.956,-0.205
8.960,-0.205
8.964,-0.190
8.968,-0.195
8.972,-0.185
8.976,-0.165
8.980,-0.170
8.984,-0.200
8.988,-0.180
8.992,-0.200
8.996,-0.190
9.000,-0.220
9.004,-0.235
9.008,-0.255
9.012,-0.250
9.016,-0.235
9.020,-0.245
9.024,-0.220
9.028,-0.205
9.032,-0.170
9.036,-0.130
9.040,-0.105
9.044,-0.080
9.048,-0.050
9.052,-0.020
9.056,0.015
9.060,0.025
9.064,0.040
9.068,0.045
9.072,0.055
9.076,0.045
9.080,0.065
9.084,0.075
9.088,0.075
9.092,0.070
9.096,0.080
9.100,0.075
9.104,0.040
9.108,0.005
9.112,0.015
9.116,-0.020
9.120,-0.055
9.124,-0.055
9.128,-0.060
9.132,-0.095
9.136,-0.100
9.140,-0.140
9.144,-0.160
9.148,-0.185
9.152,-0.230
9.156,-0.235
9.160,-0.260
9.164,-0.285
9.168,-0.300
9.172,-0.310
9.176,-0.320
9.180,-0.320
9.184,-0.325
9.188,-0.300
9.192,-0.320
9.196,-0.360
9.200,-0.375
9.204,-0.350
9.208,-0.345
9.212,-0.310
9.216,-0.295
9.220,-0.290
9.224,-0.280
9.228,-0.270
9.232,-0.285
9.236,-0.265
9.240,-0.275
9.244,-0.290
9.248,-0.270
9.252,-0.280
9.256,-0.275
9.260,-0.280
9.264,-0.270
9.268,-0.300
9.272,-0.275
9.276,-0.270
9.280,-0.250
9.284,-0.290
9.288,-0.265
9.292,-0.260
9.296,-0.270
9.300,-0.290
9.304,-0.285
9.308,-0.280
9.312,-0.285
9.316,-0.315
9.320,-0.320
9.324,-0.315
9.328,-0.300
9.332,-0.310
9.336,-0.310
9.340,-0.350
9.344,-0.400
9.348,-0.465
9.352,-0.495
9.356,-0.495
9.360,-0.435
9.364,-0.275
9.368,0.005
9.372,0.310
9.376,0.595
9.380,0.730
9.384,0.615
9.388,0.130
9.392,-0.390
9.396,-0.805
9.400,-0.900
9.404,-0.805
9.408,-0.580
9.412,-0.385
9.416,-0.285
9.420,-0.210
9.424,-0.220
9.428,-0.225
9.432,-0.245
9.436,-0.210
9.440,-0.225
9.444,-0.210
9.448,-0.240
9.452,-0.240
9.456,-0.255
9.460,-0.260
9.464,-0.255
9.468,-0.265
9.472,-0.280
9.476,-0.280
9.480,-0.280
9.484,-0.280
9.488,-0.270
9.492,-0.265
9.496,-0.285
9.500,-0.275
9.504,-0.285
9.508,-0.260
9.512,-0.255
9.516,-0.275
9.520,-0.255
9.524,-0.250
9.528,-0.270
9.532,-0.255
9.536,-0.250
9.540,-0.230
9.544,-0.225
9.548,-0.215
9.552,-0.210
9.556,-0.150
9.560,-0.170
9.564,-0.170
9.568,-0.195
9.572,-0.155
9.576,-0.115
9.580,-0.050
9.584,0.000
9.588,0.045
9.592,0.065
9.596,0.085
9.600,0.100
9.604,0.080
9.608,0.090
9.612,0.095
9.616,0.105
9.620,0.090
9.624,0.065
9.628,0.070
9.632,0.040
9.636,0.040
9.640,0.010
9.644,-0.020
9.648,-0.020
9.652,-0.050
9.656,-0.115
9.660,-0.105
9.664,-0.140
9.668,-0.160
9.672,-0.170
9.676,-0.200
9.680,-0.230
9.684,-0.230
9.688,-0.250
9.692,-0.260
9.696,-0.285
9.700,-0.270
9.704,-0.280
9.708,-0.285
9.712,-0.315
9.716,-0.320
9.720,-0.320
9.724,-0.330
9.728,-0.320
9.732,-0.350
9.736,-0.340
9.740,-0.350
9.744,-0.375
9.748,-0.370
9.752,-0.365
9.756,-0.325
9.760,-0.270
9.764,-0.235
9.768,-0.210
9.772,-0.210
9.776,-0.190
9.780,-0.200
9.784,-0.210
9.788,-0.200
9.792,-0.210
9.796,-0.210
9.800,-0.230
9.804,-0.210
9.808,-0.225
9.812,-0.200
9.816,-0.185
9.820,-0.190
9.824,-0.220
9.828,-0.205
9.832,-0.230
9.836,-0.220
9.840,-0.245
9.844,-0.235
9.848,-0.255
9.852,-0.255
9.856,-0.255
9.860,-0.255
9.864,-0.245
9.868,-0.255
9.872,-0.310
9.876,-0.420
9.880,-0.490
9.884,-0.530
9.888,-0.530
9.892,-0.465
9.896,-0.225
9.900,0.065
9.904,0.405
9.908,0.685
9.912,0.755
9.916,0.445
9.920,-0.075
9.924,-0.640
9.928,-0.970
9.932,-0.965
9.936,-0.755
9.940,-0.530
9.944,-0.365
9.948,-0.235
9.952,-0.195
9.956,-0.190
9.960,-0.170
9.964,-0.180
9.968,-0.190
9.972,-0.195
9.976,-0.190
9.980,-0.210
9.984,-0.225
9.988,-0.210
9.992,-0.220
9.996,-0.210
10.000,-0.240
10.004,-0.230
10.008,-0.230
10.012,-0.210
10.016,-0.230
10.020,-0.235
10.024,-0.240
10.028,-0.260
10.032,-0.220
10.036,-0.250
10.040,-0.245
10.044,-0.225
10.048,-0.215
10.052,-0.205
10.056,-0.210
10.060,-0.210
10.064,-0.200
10.068,-0.195
10.072,-0.180
10.076,-0.185
10.080,-0.170
10.084,-0.150
10.088,-0.150
10.092,-0.150
10.096,-0.145
10.100,-0.100
10.104,-0.085
10.108,-0.060
10.112,-0.045
10.116,-0.010
10.120,0.030
10.124,0.045
10.128,0.070
10.132,0.090
10.136,0.110
10.140,0.100
10.144,0.105
10.148,0.125
10.152,0.135
10.156,0.100
10.160,0.095
10.164,0.090
10.168,0.075
10.172,0.035
10.176,0.000
10.180,-0.010
10.184,-0.070
10.188,-0.075
10.192,-0.095
10.196,-0.110
10.200,-0.140
10.204,-0.160
10.208,-0.165
10.212,-0.180
10.216,-0.205
10.220,-0.195
10.224,-0.170
10.228,-0.200
10.232,-0.215
10.236,-0.205
10.240,-0.225
10.244,-0.240
10.248,-0.260
10.252,-0.290
10.256,-0.280
10.260,-0.260
10.264,-0.265
10.268,-0.285
10.272,-0.285
10.276,-0.265
10.280,-0.295
10.284,-0.290
10.288,-0.290
10.292,-0.270
10.296,-0.235
10.300,-0.210
10.304,-0.210
10.308,-0.195
10.312,-0.190
10.316,-0.225
10.320,-0.195
10.324,-0.200
10.328,-0.200
10.332,-0.220
10.336,-0.235
10.340,-0.210
10.344,-0.220
10.348,-0.220
10.352,-0.205
10.356,-0.235
10.360,-0.225
10.364,-0.225
10.368,-0.240
10.372,-0.230
10.376,-0.230
10.380,-0.240
10.384,-0.225
10.388,-0.230
10.392,-0.250
10.396,-0.255
10.400,-0.240
10.404,-0.260
10.408,-0.270
10.412,-0.265
10.416,-0.265
10.420,-0.270
10.424,-0.270
10.428,-0.300
10.432,-0.295
10.436,-0.280
10.440,-0.300
10.444,-0.315
10.448,-0.295
10.452,-0.315
10.456,-0.315
10.460,-0.280
10.464,-0.215
10.468,-0.210
10.472,-0.210
10.476,-0.205
10.480,-0.190
10.484,-0.195
10.488,-0.180
10.492,-0.175
10.496,-0.185
10.500,-0.200
10.504,-0.205
10.508,-0.225
10.512,-0.230
10.516,-0.215
10.520,-0.235
10.524,-0.260
10.528,-0.265
10.532,-0.260
10.536,-0.260
10.540,-0.250
10.544,-0.270
10.548,-0.260
10.552,-0.270
10.556,-0.270
10.560,-0.265
10.564,-0.265
10.568,-0.270
10.572,-0.295
10.576,-0.340
10.580,-0.410
10.584,-0.445
10.588,-0.460
10.592,-0.415
10.596,-0.320
10.600,-0.080
10.604,0.240
10.608,0.575
10.612,0.835
10.616,0.840
10.620,0.400
10.624,-0.175
10.628,-0.690
10.632,-0.970
10.636,-0.985
10.640,-0.815
10.644,-0.575
10.648,-0.380
10.652,-0.280
10.656,-0.225
10.660,-0.220
10.664,-0.225
10.668,-0.205
10.672,-0.220
10.676,-0.200
10.680,-0.210
10.684,-0.215
10.688,-0.205
10.692,-0.210
10.696,-0.230
10.700,-0.230
10.704,-0.220
10.708,-0.225
10.712,-0.215
10.716,-0.220
10.720,-0.210
10.724,-0.210
10.728,-0.205
10.732,-0.185
10.736,-0.210
10.740,-0.215
10.744,-0.225
10.748,-0.205
10.752,-0.205
10.756,-0.215
10.760,-0.220
10.764,-0.190
10.768,-0.190
10.772,-0.175
10.776,-0.155
10.780,-0.140
10.784,-0.145
10.788,-0.140
10.792,-0.105
10.796,-0.070
10.800,-0.060
10.804,-0.055
10.808,-0.045
10.812,-0.015
10.816,0.000
10.820,0.005
10.824,0.030
10.828,0.020
10.832,0.040
10.836,0.060
10.840,0.065
10.844,0.075
10.848,0.070
10.852,0.115
10.856,0.110
10.860,0.075
10.864,0.080
10.868,0.070
10.872,0.055
10.876,0.020
10.880,0.010
10.884,-0.020
10.888,-0.060
10.892,-0.095
10.896,-0.115
10.900,-0.105
10.904,-0.125
10.908,-0.160
10.912,-0.160
10.916,-0.175
10.920,-0.195
10.924,-0.220
10.928,-0.230
10.932,-0.230
10.936,-0.225
10.940,-0.255
10.944,-0.260
10.948,-0.265
10.952,-0.265
10.956,-0.280
10.960,-0.265
10.964,-0.260
10.968,-0.270
10.972,-0.260
10.976,-0.260
10.980,-0.265
10.984,-0.280
10.988,-0.280
10.992,-0.265
10.996,-0.270
11.000,-0.240
11.004,-0.245
11.008,-0.250
11.012,-0.255
11.016,-0.255
11.020,-0.255
11.024,-0.250
11.028,-0.225
11.032,-0.230
11.036,-0.210
11.040,-0.180
11.044,-0.180
11.048,-0.190
11.052,-0.185
11.056,-0.190
11.060,-0.190
11.064,-0.210
11.068,-0.220
11.072,-0.220
11.076,-0.195
11.080,-0.220
11.084,-0.210
11.088,-0.205
11.092,-0.220
11.096,-0.235
11.100,-0.225
11.104,-0.225
11.108,-0.240
11.112,-0.250
11.116,-0.225
11.120,-0.245
11.124,-0.240
11.128,-0.270
11.132,-0.335
11.136,-0.415
11.140,-0.445
11.144,-0.440
11.148,-0.365
11.152,-0.110
11.156,0.265
11.160,0.630
11.164,0.915
11.168,0.945
11.172,0.600
11.176,0.015
11.180,-0.575
11.184,-0.920
11.188,-0.870
11.192,-0.675
11.196,-0.470
11.200,-0.340
11.204,-0.300
11.208,-0.255
11.212,-0.200
11.216,-0.205
11.220,-0.160
11.224,-0.170
11.228,-0.185
11.232,-0.160
11.236,-0.190
11.240,-0.215
11.244,-0.195
11.248,-0.195
11.252,-0.210
11.256,-0.225
11.260,-0.225
11.264,-0.225
11.268,-0.235
11.272,-0.230
11.276,-0.225
11.280,-0.235
11.284,-0.225
11.288,-0.220
11.292,-0.210
11.296,-0.210
11.300,-0.200
11.304,-0.190
11.308,-0.175
11.312,-0.180
11.316,-0.160
11.320,-0.175
11.324,-0.160
11.328,-0.120
11.332,-0.090
11.336,-0.085
11.340,-0.080
11.344,-0.055
11.348,-0.040
11.352,-0.025
11.356,0.010
11.360,0.040
11.364,0.055
11.368,0.075
11.372,0.085
11.376,0.080
11.380,0.080
11.384,0.105
11.388,0.100
11.392,0.100
11.396,0.125
11.400,0.145
11.404,0.140
11.408,0.105
11.412,0.080
11.416,0.080
11.420,0.030
11.424,0.005
11.428,-0.055
11.432,-0.095
11.436,-0.135
11.440,-0.130
11.444,-0.165
11.448,-0.180
11.452,-0.200
11.456,-0.235
11.460,-0.240
11.464,-0.275
11.468,-0.260
11.472,-0.280
11.476,-0.290
11.480,-0.285
11.484,-0.295
11.488,-0.305
11.492,-0.270
11.496,-0.295
11.500,-0.280
11.504,-0.280
11.508,-0.285
11.512,-0.300
11.516,-0.290
11.520,-0.315
11.524,-0.295
11.528,-0.280
11.532,-0.275
11.536,-0.290
11.540,-0.280
11.544,-0.275
11.548,-0.290
11.552,-0.265
11.556,-0.275
11.560,-0.250
11.564,-0.215
11.568,-0.185
11.572,-0.170
11.576,-0.170
11.580,-0.180
11.584,-0.180
11.588,-0.185
11.592,-0.180
11.596,-0.195
11.600,-0.190
11.604,-0.230
11.608,-0.235
11.612,-0.255
11.616,-0.240
11.620,-0.260
11.624,-0.255
11.628,-0.265
11.632,-0.280
11.636,-0.285
11.640,-0.280
11.644,-0.300
11.648,-0.295
11.652,-0.300
11.656,-0.305
11.660,-0.315
11.664,-0.315
11.668,-0.315
11.672,-0.325
11.676,-0.340
11.680,-0.325
11.684,-0.320
11.688,-0.330
11.692,-0.325
11.696,-0.330
11.700,-0.365
11.704,-0.370
11.708,-0.360
11.712,-0.360
11.716,-0.310
11.720,-0.265
11.724,-0.240
11.728,-0.230
11.732,-0.215
11.736,-0.185
11.740,-0.210
11.744,-0.260
11.748,-0.290
11.752,-0.300
11.756,-0.225
11.760,-0.095
11.764,0.125
11.768,0.400
11.772,0.675
11.776,0.855
11.780,0.765
11.784,0.330
11.788,-0.250
11.792,-0.735
11.796,-0.965
11.800,-0.885
11.804,-0.670
11.808,-0.460
11.812,-0.315
11.816,-0.285
11.820,-0.260
11.824,-0.265
11.828,-0.270
11.832,-0.265
11.836,-0.285
11.840,-0.285
11.844,-0.270
11.848,-0.270
11.852,-0.270
11.856,-0.265
11.860,-0.275
11.864,-0.275
11.868,-0.270
11.872,-0.285
11.876,-0.290
11.880,-0.285
11.884,-0.290
11.888,-0.250
11.892,-0.210
11.896,-0.185
11.900,-0.175
11.904,-0.155
11.908,-0.140
11.912,-0.130
11.916,-0.115
11.920,-0.100
11.924,-0.095
11.928,-0.105
11.932,-0.085
11.936,-0.060
11.940,-0.065
11.944,-0.045
11.948,-0.075
11.952,-0.080
11.956,-0.030
11.960,-0.010
11.964,0.015
11.968,0.005
11.972,0.020
11.976,0.050
11.980,0.065
11.984,0.060
11.988,0.075
11.992,0.085
11.996,0.065
12.000,0.100
12.004,0.085
12.008,0.070
12.012,0.080
12.016,0.070
12.020,0.070
12.024,0.045
12.028,0.040
12.032,0.000
12.036,0.005
12.040,0.005
12.044,-0.040
12.048,-0.085
12.052,-0.095
12.056,-0.140
12.060,-0.160
12.064,-0.180
12.068,-0.160
12.072,-0.120
12.076,-0.130
12.080,-0.130
12.084,-0.120
12.088,-0.130
12.092,-0.125
12.096,-0.120
12.100,-0.105
12.104,-0.130
12.108,-0.125
12.112,-0.130
12.116,-0.140
12.120,-0.175
12.124,-0.155
12.128,-0.155
12.132,-0.185
12.136,-0.160
12.140,-0.185
12.144,-0.180
12.148,-0.160
12.152,-0.160
12.156,-0.205
12.160,-0.220
12.164,-0.220
12.168,-0.210
12.172,-0.220
12.176,-0.225
12.180,-0.230
12.184,-0.235
12.188,-0.230
12.192,-0.245
12.196,-0.225
12.200,-0.245
12.204,-0.265
12.208,-0.270
12.212,-0.285
12.216,-0.290
12.220,-0.310
12.224,-0.345
12.228,-0.370
12.232,-0.370
12.236,-0.300
12.240,-0.270
12.244,-0.255
12.248,-0.215
12.252,-0.215
12.256,-0.205
12.260,-0.170
12.264,-0.180
12.268,-0.205
12.272,-0.280
12.276,-0.315
12.280,-0.310
12.284,-0.285
12.288,-0.145
12.292,0.120
12.296,0.410
12.300,0.710
12.304,0.880
12.308,0.800
12.312,0.320
12.316,-0.265
12.320,-0.735
12.324,-0.895
12.328,-0.765
12.332,-0.550
12.336,-0.355
12.340,-0.265
12.344,-0.225
12.348,-0.220
12.352,-0.230
12.356,-0.215
12.360,-0.240
12.364,-0.245
12.368,-0.250
12.372,-0.240
12.376,-0.270
12.380,-0.280
12.384,-0.280
12.388,-0.275
12.392,-0.290
12.396,-0.290
12.400,-0.325
12.404,-0.330
12.408,-0.350
12.412,-0.340
12.416,-0.300
12.420,-0.230
12.424,-0.205
12.428,-0.195
12.432,-0.180
12.436,-0.175
12.440,-0.170
12.444,-0.140
12.448,-0.140
12.452,-0.110
12.456,-0.115
12.460,-0.085
12.464,-0.060
12.468,-0.035
12.472,-0.030
12.476,-0.025
12.480,-0.005
12.484,0.000
12.488,0.025
12.492,0.015
12.496,0.030
12.500,0.030
12.504,0.035
12.508,0.070
12.512,0.045
12.516,0.070
12.520,0.075
12.524,0.055
12.528,0.045
12.532,0.040
12.536,0.025
12.540,0.010
12.544,0.015
12.548,0.005
12.552,0.005
12.556,-0.025
12.560,-0.035
12.564,-0.060
12.568,-0.075
12.572,-0.075
12.576,-0.135
12.580,-0.150
12.584,-0.180
12.588,-0.195
12.592,-0.220
12.596,-0.245
12.600,-0.230
12.604,-0.215
12.608,-0.215
12.612,-0.210
12.616,-0.200
12.620,-0.230
12.624,-0.215
12.628,-0.230
12.632,-0.235
12.636,-0.220
12.640,-0.210
12.644,-0.205
12.648,-0.195
12.652,-0.180
12.656,-0.185
12.660,-0.175
12.664,-0.180
12.668,-0.170
12.672,-0.165
12.676,-0.175
12.680,-0.190
12.684,-0.195
12.688,-0.205
12.692,-0.225
12.696,-0.210
12.700,-0.225
12.704,-0.230
12.708,-0.250
12.712,-0.250
12.716,-0.240
12.720,-0.245
12.724,-0.250
12.728,-0.265
12.732,-0.265
12.736,-0.260
12.740,-0.270
12.744,-0.260
12.748,-0.255
12.752,-0.250
12.756,-0.250
12.760,-0.270
12.764,-0.285
12.768,-0.305
12.772,-0.320
12.776,-0.305
12.780,-0.325
12.784,-0.345
12.788,-0.375
12.792,-0.390
12.796,-0.415
12.800,-0.455
12.804,-0.430
12.808,-0.400
12.812,-0.335
12.816,-0.315
12.820,-0.270
12.824,-0.255
12.828,-0.250
12.832,-0.230
12.836,-0.205
12.840,-0.200
12.844,-0.205
12.848,-0.195
12.852,-0.195
12.856,-0.190
12.860,-0.180
12.864,-0.180
12.868,-0.205
12.872,-0.185
12.876,-0.190
12.880,-0.185
12.884,-0.210
12.888,-0.200
12.892,-0.210
12.896,-0.225
12.900,-0.215
12.904,-0.205
12.908,-0.210
12.912,-0.220
12.916,-0.215
12.920,-0.190
12.924,-0.210
12.928,-0.210
12.932,-0.220
12.936,-0.235
12.940,-0.245
12.944,-0.250
12.948,-0.275
12.952,-0.315
12.956,-0.380
12.960,-0.400
12.964,-0.400
12.968,-0.350
12.972,-0.210
12.976,0.035
12.980,0.350
12.984,0.615
12.988,0.790
12.992,0.660
12.996,0.205
13.000,-0.285
13.004,-0.715
13.008,-0.935
13.012,-0.970
13.016,-0.865
13.020,-0.710
13.024,-0.505
13.028,-0.360
13.032,-0.290
13.036,-0.245
13.040,-0.215
13.044,-0.200
13.048,-0.180
13.052,-0.190
13.056,-0.195
13.060,-0.180
13.064,-0.175
13.068,-0.165
13.072,-0.170
13.076,-0.155
13.080,-0.170
13.084,-0.185
13.088,-0.185
13.092,-0.165
13.096,-0.160
13.100,-0.190
13.104,-0.185
13.108,-0.190
13.112,-0.190
13.116,-0.180
13.120,-0.190
13.124,-0.165
13.128,-0.160
13.132,-0.160
13.136,-0.165
13.140,-0.170
13.144,-0.175
13.148,-0.170
13.152,-0.180
13.156,-0.170
13.160,-0.160
13.164,-0.160
13.168,-0.185
13.172,-0.160
13.176,-0.145
13.180,-0.120
13.184,-0.105
13.188,-0.085
13.192,-0.075
13.196,-0.045
13.200,-0.015
13.204,0.015
13.208,-0.010
13.212,0.000
13.216,-0.010
13.220,-0.040
13.224,-0.015
13.228,-0.015
13.232,-0.005
13.236,0.050
13.240,0.065
13.244,0.095
13.248,0.075
13.252,0.085
13.256,0.085
13.260,0.050
13.264,0.045
13.268,0.015
13.272,0.000
13.276,-0.030
13.280,-0.030
13.284,-0.045
13.288,-0.075
13.292,-0.100
13.296,-0.125
13.300,-0.130
13.304,-0.140
13.308,-0.140
13.312,-0.185
13.316,-0.185
13.320,-0.200
13.324,-0.225
13.328,-0.200
13.332,-0.225
13.336,-0.250
13.340,-0.245
13.344,-0.260
13.348,-0.265
13.352,-0.270
13.356,-0.275
13.360,-0.285
13.364,-0.275
13.368,-0.305
13.372,-0.315
13.376,-0.295
13.380,-0.320
13.384,-0.300
13.388,-0.320
13.392,-0.330
13.396,-0.320
13.400,-0.335
13.404,-0.350
13.408,-0.345
13.412,-0.315
13.416,-0.275
13.420,-0.240
13.424,-0.230
13.428,-0.215
13.432,-0.235
13.436,-0.225
13.440,-0.215
13.444,-0.205
13.448,-0.225
13.452,-0.225
13.456,-0.245
13.460,-0.205
13.464,-0.210
13.468,-0.205
13.472,-0.225
13.476,-0.245
13.480,-0.245
13.484,-0.240
13.488,-0.245
13.492,-0.260
13.496,-0.270
13.500,-0.275
13.504,-0.280
13.508,-0.270
13.512,-0.275
13.516,-0.295
13.520,-0.285
13.524,-0.300
13.528,-0.290
13.532,-0.295
13.536,-0.335
13.540,-0.325
13.544,-0.340
13.548,-0.345
13.552,-0.355
13.556,-0.360
13.560,-0.365
13.564,-0.400
13.568,-0.420
13.572,-0.405
13.576,-0.410
13.580,-0.430
13.584,-0.405
13.588,-0.365
13.592,-0.305
13.596,-0.305
13.600,-0.270
13.604,-0.285
13.608,-0.280
13.612,-0.285
13.616,-0.280
13.620,-0.265
13.624,-0.260
13.628,-0.260
13.632,-0.265
13.636,-0.250
13.640,-0.270
13.644,-0.290
13.648,-0.290
13.652,-0.285
13.656,-0.305
13.660,-0.315
13.664,-0.360
13.668,-0.420
13.672,-0.405
13.676,-0.380
13.680,-0.280
13.684,-0.120
13.688,0.140
13.692,0.455
13.696,0.740
13.700,0.855
13.704,0.690
13.708,0.215
13.712,-0.335
13.716,-0.830
13.720,-1.040
13.724,-1.000
13.728,-0.820
13.732,-0.620
13.736,-0.495
13.740,-0.430
13.744,-0.385
13.748,-0.390
13.752,-0.385
13.756,-0.425
13.760,-0.425
13.764,-0.425
13.768,-0.425
13.772,-0.415
13.776,-0.370
13.780,-0.335
13.784,-0.315
13.788,-0.280
13.792,-0.275
13.796,-0.265
13.800,-0.240
13.804,-0.240
13.808,-0.240
13.812,-0.230
13.816,-0.210
13.820,-0.205
13.824,-0.225
13.828,-0.235
13.832,-0.225
13.836,-0.225
13.840,-0.230
13.844,-0.215
13.848,-0.215
13.852,-0.215
13.856,-0.215
13.860,-0.220
13.864,-0.225
13.868,-0.200
13.872,-0.195
13.876,-0.190
13.880,-0.180
13.884,-0.150
13.888,-0.135
13.892,-0.115
13.896,-0.110
13.900,-0.100
13.904,-0.065
13.908,-0.060
13.912,-0.030
13.916,-0.035
13.920,-0.005
13.924,-0.025
13.928,-0.010
13.932,-0.015
13.936,-0.010
13.940,-0.010
13.944,-0.010
13.948,0.000
13.952,-0.020
13.956,-0.045
13.960,-0.080
13.964,-0.080
13.968,-0.055
13.972,-0.035
13.976,-0.030
13.980,-0.025
13.984,-0.025
13.988,-0.035
13.992,-0.060
13.996,-0.090
14.000,-0.110
14.004,-0.135
14.008,-0.145
14.012,-0.160
14.016,-0.195
14.020,-0.190
14.024,-0.205
14.028,-0.225
14.032,-0.240
14.036,-0.270
14.040,-0.280
14.044,-0.265
14.048,-0.270
14.052,-0.265
14.056,-0.270
14.060,-0.315
14.064,-0.310
14.068,-0.300
14.072,-0.315
14.076,-0.305
14.080,-0.315
14.084,-0.340
14.088,-0.330
14.092,-0.345
14.096,-0.340
14.100,-0.335
14.104,-0.335
14.108,-0.345
14.112,-0.380
14.116,-0.340
14.120,-0.350
14.124,-0.355
14.128,-0.345
14.132,-0.360
14.136,-0.365
14.140,-0.365
14.144,-0.360
14.148,-0.350
14.152,-0.290
14.156,-0.240
14.160,-0.245
14.164,-0.210
14.168,-0.190
14.172,-0.195
14.176,-0.205
14.180,-0.195
14.184,-0.225
14.188,-0.215
14.192,-0.220
14.196,-0.215
14.200,-0.240
14.204,-0.250
14.208,-0.250
14.212,-0.270
14.216,-0.255
14.220,-0.275
14.224,-0.275
14.228,-0.295
14.232,-0.260
14.236,-0.285
14.240,-0.295
14.244,-0.290
14.248,-0.305
14.252,-0.300
14.256,-0.275
14.260,-0.300
14.264,-0.290
14.268,-0.300
14.272,-0.305
14.276,-0.320
14.280,-0.335
14.284,-0.325
14.288,-0.360
14.292,-0.355
14.296,-0.360
14.300,-0.360
14.304,-0.380
14.308,-0.405
14.312,-0.405
14.316,-0.420
14.320,-0.415
14.324,-0.350
14.328,-0.310
14.332,-0.275
14.336,-0.260
14.340,-0.255
14.344,-0.245
14.348,-0.250
14.352,-0.230
14.356,-0.230
14.360,-0.235
14.364,-0.240
14.368,-0.250
14.372,-0.240
14.376,-0.250
14.380,-0.275
14.384,-0.260
14.388,-0.280
14.392,-0.270
14.396,-0.280
14.400,-0.295
14.404,-0.295
14.408,-0.295
14.412,-0.300
14.416,-0.315
14.420,-0.310
14.424,-0.315
14.428,-0.320
14.432,-0.320
14.436,-0.315
14.440,-0.335
14.444,-0.325
14.448,-0.315
14.452,-0.310
14.456,-0.330
14.460,-0.350
14.464,-0.355
14.468,-0.345
14.472,-0.360
14.476,-0.410
14.480,-0.400
14.484,-0.450
14.488,-0.460
14.492,-0.440
14.496,-0.390
14.500,-0.410
14.504,-0.420
14.508,-0.450
14.512,-0.455
14.516,-0.410
14.520,-0.320
14.524,-0.075
14.528,0.175
14.532,0.520
14.536,0.810
14.540,0.890
14.544,0.575
14.548,0.025
14.552,-0.540
14.556,-0.910
14.560,-0.950
14.564,-0.800
14.568,-0.600
14.572,-0.420
14.576,-0.355
14.580,-0.310
14.584,-0.305
14.588,-0.290
14.592,-0.320
14.596,-0.315
14.600,-0.315
14.604,-0.320
14.608,-0.310
14.612,-0.315
14.616,-0.335
14.620,-0.340
14.624,-0.335
14.628,-0.330
14.632,-0.315
14.636,-0.320
14.640,-0.325
14.644,-0.340
14.648,-0.345
14.652,-0.340
14.656,-0.325
14.660,-0.320
14.664,-0.330
14.668,-0.335
14.672,-0.340
14.676,-0.340
14.680,-0.330
14.684,-0.330
14.688,-0.340
14.692,-0.345
14.696,-0.260
14.700,-0.220
14.704,-0.180
14.708,-0.155
14.712,-0.115
14.716,-0.105
14.720,-0.080
14.724,-0.055
14.728,-0.030
14.732,-0.015
14.736,0.030
14.740,0.030
14.744,0.035
14.748,0.050
14.752,0.040
14.756,0.065
14.760,0.085
14.764,0.070
14.768,0.075
14.772,0.065
14.776,0.065
14.780,0.055
14.784,0.030
14.788,0.020
14.792,0.025
14.796,-0.010
14.800,-0.005
14.804,-0.035
14.808,-0.080
14.812,-0.085
14.816,-0.095
14.820,-0.150
14.824,-0.165
14.828,-0.185
14.832,-0.210
14.836,-0.225
14.840,-0.255
14.844,-0.255
14.848,-0.295
14.852,-0.305
14.856,-0.315
14.860,-0.335
14.864,-0.360
14.868,-0.380
14.872,-0.350
14.876,-0.320
14.880,-0.280
14.884,-0.265
14.888,-0.250
14.892,-0.240
14.896,-0.240
14.900,-0.225
14.904,-0.235
14.908,-0.215
14.912,-0.210
14.916,-0.205
14.920,-0.235
14.924,-0.230
14.928,-0.220
14.932,-0.235
14.936,-0.255
14.940,-0.245
14.944,-0.255
14.948,-0.250
14.952,-0.225
14.956,-0.240
14.960,-0.255
14.964,-0.255
14.968,-0.270
14.972,-0.260
14.976,-0.265
14.980,-0.285
14.984,-0.275
14.988,-0.280
14.992,-0.275
14.996,-0.305
15.000,-0.305
15.004,-0.315
15.008,-0.320
15.012,-0.340
15.016,-0.330
15.020,-0.370
15.024,-0.400
15.028,-0.425
15.032,-0.420
15.036,-0.360
15.040,-0.330
15.044,-0.310
15.048,-0.280
15.052,-0.265
15.056,-0.275
15.060,-0.250
15.064,-0.255
15.068,-0.250
15.072,-0.260
15.076,-0.245
15.080,-0.225
15.084,-0.215
15.088,-0.220
15.092,-0.230
15.096,-0.230
15.100,-0.265
15.104,-0.230
15.108,-0.240
15.112,-0.250
15.116,-0.260
15.120,-0.240
15.124,-0.255
15.128,-0.240
15.132,-0.245
15.136,-0.260
15.140,-0.270
15.144,-0.280
15.148,-0.285
15.152,-0.270
15.156,-0.260
15.160,-0.275
15.164,-0.305
15.168,-0.315
15.172,-0.340
15.176,-0.335
15.180,-0.340
15.184,-0.360
15.188,-0.360
15.192,-0.385
15.196,-0.395
15.200,-0.370
15.204,-0.325
15.208,-0.305
15.212,-0.305
15.216,-0.290
15.220,-0.295
15.224,-0.275
15.228,-0.280
15.232,-0.265
15.236,-0.270
15.240,-0.260
15.244,-0.280
15.248,-0.280
15.252,-0.300
15.256,-0.365
15.260,-0.395
15.264,-0.395
15.268,-0.360
15.272,-0.215
15.276,0.070
15.280,0.420
15.284,0.720
15.288,0.860
15.292,0.630
15.296,0.060
15.300,-0.520
15.304,-0.955
15.308,-0.980
15.312,-0.805
15.316,-0.595
15.320,-0.460
15.324,-0.350
15.328,-0.325
15.332,-0.300
15.336,-0.305
15.340,-0.345
15.344,-0.340
15.348,-0.340
15.352,-0.335
15.356,-0.365
15.360,-0.390
15.364,-0.395
15.368,-0.380
15.372,-0.420
15.376,-0.390
15.380,-0.345
15.384,-0.305
15.388,-0.285
15.392,-0.265
15.396,-0.230
15.400,-0.245
15.404,-0.225
15.408,-0.225
15.412,-0.230
15.416,-0.200
15.420,-0.190
15.424,-0.180
15.428,-0.170
15.432,-0.175
15.436,-0.145
15.440,-0.155
15.444,-0.150
15.448,-0.145
15.452,-0.110
15.456,-0.110
15.460,-0.120
15.464,-0.095
15.468,-0.095
15.472,-0.070
15.476,-0.055
15.480,-0.040
15.484,-0.030
15.488,-0.035
15.492,0.000
15.496,0.010
15.500,0.000
15.504,0.035
15.508,0.025
15.512,0.035
15.516,0.030
15.520,0.025
15.524,0.020
15.528,0.025
15.532,0.000
15.536,-0.030
15.540,-0.070
15.544,-0.070
15.548,-0.105
15.552,-0.135
15.556,-0.200
15.560,-0.215
15.564,-0.185
15.568,-0.150
15.572,-0.175
15.576,-0.175
15.580,-0.190
15.584,-0.200
15.588,-0.220
15.592,-0.215
15.596,-0.210
15.600,-0.195
15.604,-0.235
15.608,-0.230
15.612,-0.245
15.616,-0.245
15.620,-0.255
15.624,-0.230
15.628,-0.285
15.632,-0.290
15.636,-0.300
15.640,-0.310
15.644,-0.295
15.648,-0.290
15.652,-0.300
15.656,-0.320
15.660,-0.305
15.664,-0.330
15.668,-0.335
15.672,-0.320
15.676,-0.290
15.680,-0.305
15.684,-0.345
15.688,-0.335
15.692,-0.345
15.696,-0.350
15.700,-0.355
15.704,-0.360
15.708,-0.355
15.712,-0.355
15.716,-0.370
15.720,-0.400
15.724,-0.395
15.728,-0.415
15.732,-0.390
15.736,-0.350
15.740,-0.280
15.744,-0.285
15.748,-0.265
15.752,-0.275
15.756,-0.280
15.760,-0.270
15.764,-0.265
15.768,-0.240
15.772,-0.260
15.776,-0.260
15.780,-0.240
15.784,-0.265
15.788,-0.275
15.792,-0.295
15.796,-0.295
15.800,-0.290
15.804,-0.275
15.808,-0.290
15.812,-0.285
15.816,-0.280
15.820,-0.290
15.824,-0.310
15.828,-0.295
15.832,-0.290
15.836,-0.310
15.840,-0.305
15.844,-0.310
15.848,-0.305
15.852,-0.340
15.856,-0.320
15.860,-0.335
15.864,-0.350
15.868,-0.330
15.872,-0.360
15.876,-0.355
15.880,-0.355
15.884,-0.360
15.888,-0.380
15.892,-0.390
15.896,-0.380
15.900,-0.360
15.904,-0.325
15.908,-0.280
15.912,-0.290
15.916,-0.290
15.920,-0.280
15.924,-0.280
15.928,-0.270
15.932,-0.260
15.936,-0.265
15.940,-0.245
15.944,-0.225
15.948,-0.235
15.952,-0.225
15.956,-0.225
15.960,-0.265
15.964,-0.235
15.968,-0.250
15.972,-0.265
15.976,-0.265
15.980,-0.295
15.984,-0.285
15.988,-0.260
15.992,-0.265
15.996,-0.270
16.000,-0.300
16.004,-0.305
16.008,-0.365
16.012,-0.415
16.016,-0.410
16.020,-0.395
16.024,-0.325
16.028,-0.110
16.032,0.200
16.036,0.530
16.040,0.805
16.044,0.870
16.048,0.550
16.052,-0.025
16.056,-0.570
16.060,-0.965
16.064,-1.050
16.068,-0.930
16.072,-0.710
16.076,-0.505
16.080,-0.380
16.084,-0.325
16.088,-0.280
16.092,-0.245
16.096,-0.260
16.100,-0.235
16.104,-0.220
16.108,-0.225
16.112,-0.225
16.116,-0.235
16.120,-0.220
16.124,-0.200
16.128,-0.195
16.132,-0.185
16.136,-0.190
16.140,-0.190
16.144,-0.190
16.148,-0.195
16.152,-0.210
16.156,-0.215
16.160,-0.220
16.164,-0.200
16.168,-0.215
16.172,-0.215
16.176,-0.210
16.180,-0.220
16.184,-0.215
16.188,-0.200
16.192,-0.200
16.196,-0.205
16.200,-0.200
16.204,-0.190
16.208,-0.190
16.212,-0.190
16.216,-0.190
16.220,-0.205
16.224,-0.175
16.228,-0.175
16.232,-0.160
16.236,-0.155
16.240,-0.090
16.244,-0.030
16.248,0.000
16.252,0.035
16.256,0.055
16.260,0.075
16.264,0.075
16.268,0.100
16.272,0.120
16.276,0.110
16.280,0.110
16.284,0.115
16.288,0.130
16.292,0.140
16.296,0.105
16.300,0.100
16.304,0.065
16.308,0.035
16.312,0.030
16.316,-0.005
16.320,-0.040
16.324,-0.055
16.328,-0.085
16.332,-0.125
16.336,-0.155
16.340,-0.170
16.344,-0.180
16.348,-0.210
16.352,-0.220
16.356,-0.235
16.360,-0.245
16.364,-0.270
16.368,-0.280
16.372,-0.305
16.376,-0.305
16.380,-0.325
16.384,-0.345
16.388,-0.355
16.392,-0.385
16.396,-0.400
16.400,-0.425
16.404,-0.380
16.408,-0.340
16.412,-0.345
16.416,-0.315
16.420,-0.310
16.424,-0.315
16.428,-0.310
16.432,-0.270
16.436,-0.280
16.440,-0.275
16.444,-0.285
16.448,-0.255
16.452,-0.250
16.456,-0.235
16.460,-0.230
16.464,-0.230
16.468,-0.225
16.472,-0.240
16.476,-0.220
16.480,-0.210
16.484,-0.235
16.488,-0.255
16.492,-0.255
16.496,-0.260
16.500,-0.255
16.504,-0.275
16.508,-0.280
16.512,-0.295
16.516,-0.280
16.520,-0.275
16.524,-0.280
16.528,-0.285
16.532,-0.300
16.536,-0.310
16.540,-0.285
16.544,-0.305
16.548,-0.320
16.552,-0.310
16.556,-0.330
16.560,-0.320
16.564,-0.360
16.568,-0.365
16.572,-0.370
16.576,-0.370
16.580,-0.390
16.584,-0.350
16.588,-0.300
16.592,-0.275
16.596,-0.240
16.600,-0.245
16.604,-0.250
16.608,-0.235
16.612,-0.235
16.616,-0.230
16.620,-0.240
16.624,-0.230
16.628,-0.250
16.632,-0.240
16.636,-0.240
16.640,-0.250
16.644,-0.225
16.648,-0.225
16.652,-0.245
16.656,-0.240
16.660,-0.245
16.664,-0.260
16.668,-0.260
16.672,-0.270
16.676,-0.275
16.680,-0.290
16.684,-0.275
16.688,-0.300
16.692,-0.325
16.696,-0.390
16.700,-0.390
16.704,-0.375
16.708,-0.315
16.712,-0.175
16.716,0.075
16.720,0.350
16.724,0.645
16.728,0.815
16.732,0.750
16.736,0.345
16.740,-0.220
16.744,-0.745
16.748,-1.015
16.752,-0.980
16.756,-0.830
16.760,-0.655
16.764,-0.520
16.768,-0.405
16.772,-0.330
16.776,-0.300
16.780,-0.270
16.784,-0.270
16.788,-0.265
16.792,-0.250
16.796,-0.245
16.800,-0.240
16.804,-0.230
16.808,-0.250
16.812,-0.255
16.816,-0.210
16.820,-0.225
16.824,-0.225
16.828,-0.235
16.832,-0.250
16.836,-0.250
16.840,-0.245
16.844,-0.235
16.848,-0.225
16.852,-0.235
16.856,-0.230
16.860,-0.230
16.864,-0.210
16.868,-0.225
16.872,-0.210
16.876,-0.210
16.880,-0.200
16.884,-0.190
16.888,-0.175
16.892,-0.150
16.896,-0.165
16.900,-0.140
16.904,-0.135
16.908,-0.120
16.912,-0.090
16.916,-0.080
16.920,-0.070
16.924,-0.070
16.928,-0.065
16.932,-0.050
16.936,-0.030
16.940,-0.015
16.944,0.010
16.948,0.090
16.952,0.125
16.956,0.150
16.960,0.165
16.964,0.165
16.968,0.175
16.972,0.200
16.976,0.180
16.980,0.180
16.984,0.175
16.988,0.155
16.992,0.145
16.996,0.140
17.000,0.110
17.004,0.100
17.008,0.075
17.012,0.030
17.016,0.010
17.020,-0.045
17.024,-0.050
17.028,-0.080
17.032,-0.115
17.036,-0.120
17.040,-0.140
17.044,-0.170
17.048,-0.185
17.052,-0.185
17.056,-0.205
17.060,-0.225
17.064,-0.220
17.068,-0.225
17.072,-0.235
17.076,-0.255
17.080,-0.275
17.084,-0.275
17.088,-0.305
17.092,-0.310
17.096,-0.300
17.100,-0.320
17.104,-0.330
17.108,-0.315
17.112,-0.320
17.116,-0.320
17.120,-0.295
17.124,-0.245
17.128,-0.230
17.132,-0.215
17.136,-0.195
17.140,-0.215
17.144,-0.205
17.148,-0.185
17.152,-0.210
17.156,-0.205
17.160,-0.175
17.164,-0.200
17.168,-0.175
17.172,-0.200
17.176,-0.220
17.180,-0.200
17.184,-0.210
17.188,-0.210
17.192,-0.210
17.196,-0.235
17.200,-0.245
17.204,-0.210
17.208,-0.245
17.212,-0.230
17.216,-0.240
17.220,-0.240
17.224,-0.250
17.228,-0.250
17.232,-0.260
17.236,-0.240
17.240,-0.250
17.244,-0.245
17.248,-0.250
17.252,-0.255
17.256,-0.265
17.260,-0.265
17.264,-0.275
17.268,-0.275
17.272,-0.285
17.276,-0.315
17.280,-0.305
17.284,-0.330
17.288,-0.340
17.292,-0.345
17.296,-0.295
17.300,-0.260
17.304,-0.220
17.308,-0.215
17.312,-0.200
17.316,-0.220
17.320,-0.205
17.324,-0.190
17.328,-0.155
17.332,-0.175
17.336,-0.170
17.340,-0.170
17.344,-0.170
17.348,-0.190
17.352,-0.190
17.356,-0.215
17.360,-0.220
17.364,-0.240
17.368,-0.295
17.372,-0.310
17.376,-0.330
17.380,-0.285
17.384,-0.245
17.388,-0.095
17.392,0.130
17.396,0.405
17.400,0.670
17.404,0.810
17.408,0.690
17.412,0.255
17.416,-0.250
17.420,-0.720
17.424,-0.960
17.428,-0.915
17.432,-0.770
17.436,-0.590
17.440,-0.440
17.444,-0.405
17.448,-0.380
17.452,-0.355
17.456,-0.380
17.460,-0.375
17.464,-0.360
17.468,-0.320
17.472,-0.275
17.476,-0.265
17.480,-0.270
17.484,-0.265
17.488,-0.275
17.492,-0.275
17.496,-0.235
17.500,-0.235
17.504,-0.250
17.508,-0.220
17.512,-0.225
17.516,-0.225
17.520,-0.205
17.524,-0.205
17.528,-0.190
17.532,-0.195
17.536,-0.200
17.540,-0.180
17.544,-0.170
17.548,-0.185
17.552,-0.175
17.556,-0.180
17.560,-0.170
17.564,-0.150
17.568,-0.140
17.572,-0.125
17.576,-0.130
17.580,-0.105
17.584,-0.090
17.588,-0.080
17.592,-0.085
17.596,-0.035
17.600,-0.015
17.604,-0.005
17.608,0.005
17.612,0.020
17.616,0.035
17.620,0.055
17.624,0.055
17.628,0.075
17.632,0.045
17.636,0.030
17.640,0.025
17.644,0.055
17.648,0.100
17.652,0.125
17.656,0.150
17.660,0.145
17.664,0.135
17.668,0.115
17.672,0.090
17.676,0.075
17.680,0.060
17.684,0.015
17.688,0.010
17.692,0.000
17.696,-0.035
17.700,-0.050
17.704,-0.090
17.708,-0.105
17.712,-0.145
17.716,-0.150
17.720,-0.175
17.724,-0.190
17.728,-0.210
17.732,-0.220
17.736,-0.240
17.740,-0.230
17.744,-0.255
17.748,-0.270
17.752,-0.255
17.756,-0.285
17.760,-0.275
17.764,-0.275
17.768,-0.280
17.772,-0.295
17.776,-0.295
17.780,-0.305
17.784,-0.300
17.788,-0.325
17.792,-0.335
17.796,-0.330
17.800,-0.330
17.804,-0.345
17.808,-0.365
17.812,-0.365
17.816,-0.395
17.820,-0.385
17.824,-0.350
17.828,-0.310
17.832,-0.285
17.836,-0.260
17.840,-0.265
17.844,-0.230
17.848,-0.230
17.852,-0.230
17.856,-0.220
17.860,-0.200
17.864,-0.205
17.868,-0.195
17.872,-0.215
17.876,-0.200
17.880,-0.200
17.884,-0.215
17.888,-0.205
17.892,-0.210
17.896,-0.215
17.900,-0.205
17.904,-0.220
17.908,-0.215
17.912,-0.235
17.916,-0.240
17.920,-0.255
17.924,-0.250
17.928,-0.245
17.932,-0.250
17.936,-0.235
17.940,-0.235
17.944,-0.245
17.948,-0.265
17.952,-0.295
17.956,-0.350
17.960,-0.415
17.964,-0.440
17.968,-0.445
17.972,-0.420
17.976,-0.260
17.980,0.005
17.984,0.315
17.988,0.595
17.992,0.775
17.996,0.685
18.000,0.280
18.004,-0.280
18.008,-0.735
18.012,-0.920
18.016,-0.875
18.020,-0.695
18.024,-0.485
18.028,-0.310
18.032,-0.255
18.036,-0.245
18.040,-0.225
18.044,-0.225
18.048,-0.235
18.052,-0.220
18.056,-0.205
18.060,-0.220
18.064,-0.245
18.068,-0.250
18.072,-0.245
18.076,-0.250
18.080,-0.220
18.084,-0.250
18.088,-0.255
18.092,-0.245
18.096,-0.255
18.100,-0.250
18.104,-0.260
18.108,-0.235
18.112,-0.255
18.116,-0.255
18.120,-0.245
18.124,-0.215
18.128,-0.235
18.132,-0.235
18.136,-0.235
18.140,-0.235
18.144,-0.205
18.148,-0.235
18.152,-0.230
18.156,-0.215
18.160,-0.210
18.164,-0.235
18.168,-0.200
18.172,-0.180
18.176,-0.140
18.180,-0.085
18.184,-0.050
18.188,-0.010
18.192,0.030
18.196,0.045
18.200,0.040
18.204,0.080
18.208,0.100
18.212,0.115
18.216,0.095
18.220,0.105
18.224,0.100
18.228,0.115
18.232,0.095
18.236,0.095
18.240,0.095
18.244,0.085
18.248,0.060
18.252,0.030
18.256,-0.010
18.260,-0.010
18.264,-0.040
18.268,-0.065
18.272,-0.105
18.276,-0.125
18.280,-0.140
18.284,-0.160
18.288,-0.190
18.292,-0.180
18.296,-0.200
18.300,-0.215
18.304,-0.240
18.308,-0.235
18.312,-0.260
18.316,-0.290
18.320,-0.300
18.324,-0.295
18.328,-0.300
18.332,-0.320
18.336,-0.300
18.340,-0.340
18.344,-0.385
18.348,-0.380
18.352,-0.355
18.356,-0.335
18.360,-0.300
18.364,-0.270
18.368,-0.270
18.372,-0.265
18.376,-0.240
18.380,-0.240
18.384,-0.255
18.388,-0.255
18.392,-0.240
18.396,-0.245
18.400,-0.240
18.404,-0.235
18.408,-0.255
18.412,-0.275
18.416,-0.285
18.420,-0.290
18.424,-0.280
18.428,-0.265
18.432,-0.280
18.436,-0.280
18.440,-0.285
18.444,-0.275
18.448,-0.280
18.452,-0.285
18.456,-0.295
18.460,-0.300
18.464,-0.285
18.468,-0.290
18.472,-0.300
18.476,-0.320
18.480,-0.345
18.484,-0.360
18.488,-0.360
18.492,-0.355
18.496,-0.385
18.500,-0.410
18.504,-0.520
18.508,-0.600
18.512,-0.640
18.516,-0.625
18.520,-0.530
18.524,-0.270
18.528,0.080
18.532,0.460
18.536,0.785
18.540,0.885
18.544,0.630
18.548,0.100
18.552,-0.460
18.556,-0.865
18.560,-0.945
18.564,-0.885
18.568,-0.680
18.572,-0.510
18.576,-0.405
18.580,-0.350
18.584,-0.305
18.588,-0.295
18.592,-0.305
18.596,-0.300
18.600,-0.320
18.604,-0.340
18.608,-0.305
18.612,-0.330
18.616,-0.335
18.620,-0.330
18.624,-0.340
18.628,-0.335
18.632,-0.335
18.636,-0.335
18.640,-0.305
18.644,-0.310
18.648,-0.305
18.652,-0.310
18.656,-0.325
18.660,-0.325
18.664,-0.310
18.668,-0.320
18.672,-0.330
18.676,-0.330
18.680,-0.350
18.684,-0.365
18.688,-0.345
18.692,-0.305
18.696,-0.255
18.700,-0.210
18.704,-0.215
18.708,-0.175
18.712,-0.165
18.716,-0.135
18.720,-0.130
18.724,-0.090
18.728,-0.070
18.732,-0.080
18.736,-0.070
18.740,-0.030
18.744,-0.005
18.748,0.005
18.752,0.000
18.756,0.000
18.760,0.000
18.764,-0.010
18.768,-0.010
18.772,-0.005
18.776,-0.015
18.780,-0.035
18.784,-0.035
18.788,-0.050
18.792,-0.070
18.796,-0.065
18.800,-0.085
18.804,-0.120
18.808,-0.135
18.812,-0.160
18.816,-0.185
18.820,-0.200
18.824,-0.230
18.828,-0.255
18.832,-0.270
18.836,-0.285
18.840,-0.320
18.844,-0.325
18.848,-0.340
18.852,-0.375
18.856,-0.405
18.860,-0.415
18.864,-0.395
18.868,-0.370
18.872,-0.355
18.876,-0.320
18.880,-0.290
18.884,-0.305
18.888,-0.285
18.892,-0.250
18.896,-0.250
18.900,-0.255
18.904,-0.265
18.908,-0.255
18.912,-0.260
18.916,-0.265
18.920,-0.270
18.924,-0.285
18.928,-0.285
18.932,-0.280
18.936,-0.280
18.940,-0.295
18.944,-0.290
18.948,-0.295
18.952,-0.285
18.956,-0.270
18.960,-0.280
18.964,-0.305
18.968,-0.285
18.972,-0.290
18.976,-0.300
18.980,-0.315
18.984,-0.320
18.988,-0.315
18.992,-0.320
18.996,-0.320
19.000,-0.325
19.004,-0.335
19.008,-0.345
19.012,-0.355
19.016,-0.390
19.020,-0.380
19.024,-0.395
19.028,-0.370
19.032,-0.335
19.036,-0.290
19.040,-0.280
19.044,-0.275
19.048,-0.285
19.052,-0.260
19.056,-0.255
19.060,-0.240
19.064,-0.250
19.068,-0.215
19.072,-0.260
19.076,-0.260
19.080,-0.255
19.084,-0.245
19.088,-0.250
19.092,-0.265
19.096,-0.290
19.100,-0.300
19.104,-0.295
19.108,-0.300
19.112,-0.310
19.116,-0.310
19.120,-0.330
19.124,-0.390
19.128,-0.425
19.132,-0.380
19.136,-0.335
19.140,-0.215
19.144,0.030
19.148,0.350
19.152,0.680
19.156,0.880
19.160,0.825
19.164,0.365
19.168,-0.240
19.172,-0.785
19.176,-1.055
19.180,-1.045
19.184,-0.860
19.188,-0.670
19.192,-0.520
19.196,-0.415
19.200,-0.335
19.204,-0.310
19.208,-0.305
19.212,-0.315
19.216,-0.325
19.220,-0.315
19.224,-0.295
19.228,-0.295
19.232,-0.280
19.236,-0.290
19.240,-0.310
19.244,-0.300
19.248,-0.295
19.252,-0.290
19.256,-0.285
19.260,-0.280
19.264,-0.310
19.268,-0.295
19.272,-0.310
19.276,-0.305
19.280,-0.300
19.284,-0.290
19.288,-0.295
19.292,-0.320
19.296,-0.295
19.300,-0.310
19.304,-0.280
19.308,-0.270
19.312,-0.250
19.316,-0.250
19.320,-0.225
19.324,-0.250
19.328,-0.250
19.332,-0.240
19.336,-0.230
19.340,-0.210
19.344,-0.205
19.348,-0.185
19.352,-0.145
19.356,-0.115
19.360,-0.065
19.364,-0.030
19.368,-0.005
19.372,0.000
19.376,0.030
19.380,0.060
19.384,0.055
19.388,0.070
19.392,0.065
19.396,0.075
19.400,0.035
19.404,0.045
19.408,0.030
19.412,0.015
19.416,-0.025
19.420,-0.040
19.424,-0.060
19.428,-0.100
19.432,-0.130
19.436,-0.160
19.440,-0.190
19.444,-0.235
19.448,-0.250
19.452,-0.255
19.456,-0.300
19.460,-0.310
19.464,-0.325
19.468,-0.320
19.472,-0.340
19.476,-0.350
19.480,-0.370
19.484,-0.370
19.488,-0.390
19.492,-0.390
19.496,-0.395
19.500,-0.410
19.504,-0.400
19.508,-0.410
19.512,-0.420
19.516,-0.400
19.520,-0.380
19.524,-0.365
19.528,-0.380
19.532,-0.370
19.536,-0.355
19.540,-0.360
19.544,-0.360
19.548,-0.350
19.552,-0.355
19.556,-0.335
19.560,-0.330
19.564,-0.310
19.568,-0.335
19.572,-0.350
19.576,-0.340
19.580,-0.340
19.584,-0.340
19.588,-0.325
19.592,-0.330
19.596,-0.320
19.600,-0.340
19.604,-0.330
19.608,-0.330
19.612,-0.335
19.616,-0.345
19.620,-0.370
19.624,-0.350
19.628,-0.370
19.632,-0.385
19.636,-0.365
19.640,-0.370
19.644,-0.355
19.648,-0.365
19.652,-0.340
19.656,-0.340
19.660,-0.355
19.664,-0.360
19.668,-0.365
19.672,-0.390
19.676,-0.365
19.680,-0.370
19.684,-0.375
19.688,-0.380
19.692,-0.380
19.696,-0.380
19.700,-0.380
19.704,-0.375
19.708,-0.345
19.712,-0.360
19.716,-0.345
19.720,-0.340
19.724,-0.350
19.728,-0.315
19.732,-0.330
19.736,-0.320
19.740,-0.310
19.744,-0.330
19.748,-0.325
19.752,-0.310
19.756,-0.360
19.760,-0.345
19.764,-0.320
19.768,-0.345
19.772,-0.355
19.776,-0.360
19.780,-0.370
19.784,-0.350
19.788,-0.360
19.792,-0.355
19.796,-0.330
19.800,-0.360
19.804,-0.385
19.808,-0.360
19.812,-0.390
19.816,-0.375
19.820,-0.390
19.824,-0.405
19.828,-0.395
19.832,-0.380
19.836,-0.385
19.840,-0.390
19.844,-0.410
19.848,-0.405
19.852,-0.400
19.856,-0.385
19.860,-0.380
19.864,-0.395
19.868,-0.395
19.872,-0.370
19.876,-0.380
19.880,-0.365
19.884,-0.390
19.888,-0.370
19.892,-0.370
19.896,-0.365
19.900,-0.360
19.904,-0.365
19.908,-0.360
19.912,-0.365
19.916,-0.365
19.920,-0.355
19.924,-0.360
19.928,-0.350
19.932,-0.350
19.936,-0.360
19.940,-0.345
19.944,-0.360
19.948,-0.345
19.952,-0.320
19.956,-0.325
19.960,-0.335
19.964,-0.355
19.968,-0.390
19.972,-0.450
19.976,-0.465
19.980,-0.455
19.984,-0.370
19.988,-0.140
19.992,0.200
19.996,0.545
20.000,0.845
20.004,0.795
20.008,0.335
20.012,-0.295
20.016,-0.825
20.020,-1.005
20.024,-0.890
20.028,-0.670
20.032,-0.470
20.036,-0.360
20.040,-0.340
20.044,-0.300
20.048,-0.330
20.052,-0.315
20.056,-0.305
20.060,-0.300
20.064,-0.280
20.068,-0.280
20.072,-0.280
20.076,-0.280
20.080,-0.255
20.084,-0.255
20.088,-0.290
20.092,-0.300
20.096,-0.295
20.100,-0.290
20.104,-0.305
20.108,-0.300
20.112,-0.290
20.116,-0.285
20.120,-0.310
20.124,-0.275
20.128,-0.285
20.132,-0.260
20.136,-0.265
20.140,-0.260
20.144,-0.230
20.148,-0.240
20.152,-0.245
20.156,-0.295
20.160,-0.295
20.164,-0.290
20.168,-0.275
20.172,-0.255
20.176,-0.180
20.180,-0.140
20.184,-0.135
20.188,-0.100
20.192,-0.085
20.196,-0.080
20.200,-0.050
20.204,-0.050
20.208,-0.020
20.212,0.020
20.216,0.040
20.220,0.045
20.224,0.035
20.228,0.040
20.232,0.090
20.236,0.100
20.240,0.095
20.244,0.100
20.248,0.080
20.252,0.055
20.256,0.045
20.260,0.020
20.264,0.020
20.268,-0.005
20.272,-0.050
20.276,-0.065
20.280,-0.085
20.284,-0.130
20.288,-0.130
20.292,-0.165
20.296,-0.195
20.300,-0.180
20.304,-0.190
20.308,-0.205
20.312,-0.240
20.316,-0.245
20.320,-0.285
20.324,-0.320
20.328,-0.305
20.332,-0.345
20.336,-0.375
20.340,-0.385
20.344,-0.335
20.348,-0.315
20.352,-0.300
20.356,-0.275
20.360,-0.290
20.364,-0.260
20.368,-0.255
20.372,-0.250
20.376,-0.275
20.380,-0.245
20.384,-0.260
20.388,-0.250
20.392,-0.245
20.396,-0.225
20.400,-0.240
20.404,-0.245
20.408,-0.265
20.412,-0.285
20.416,-0.260
20.420,-0.255
20.424,-0.285
20.428,-0.270
20.432,-0.265
20.436,-0.255
20.440,-0.285
20.444,-0.310
20.448,-0.300
20.452,-0.310
20.456,-0.340
20.460,-0.315
20.464,-0.295
20.468,-0.320
20.472,-0.295
20.476,-0.305
20.480,-0.320
20.484,-0.325
20.488,-0.330
20.492,-0.360
20.496,-0.370
20.500,-0.365
20.504,-0.375
20.508,-0.410
20.512,-0.445
20.516,-0.455
20.520,-0.385
20.524,-0.330
20.528,-0.305
20.532,-0.310
20.536,-0.300
20.540,-0.290
20.544,-0.270
20.548,-0.280
20.552,-0.285
20.556,-0.290
20.560,-0.270
20.564,-0.255
20.568,-0.255
20.572,-0.255
20.576,-0.270
20.580,-0.270
20.584,-0.290
20.588,-0.280
20.592,-0.280
20.596,-0.270
20.600,-0.305
20.604,-0.375
20.608,-0.430
20.612,-0.440
20.616,-0.400
20.620,-0.345
20.624,-0.205
20.628,0.060
20.632,0.370
20.636,0.640
20.640,0.740
20.644,0.510
20.648,0.000
20.652,-0.510
20.656,-0.890
20.660,-0.970
20.664,-0.865
20.668,-0.700
20.672,-0.555
20.676,-0.485
20.680,-0.430
20.684,-0.420
20.688,-0.435
20.692,-0.430
20.696,-0.425
20.700,-0.400
20.704,-0.350
20.708,-0.315
20.712,-0.295
20.716,-0.275
20.720,-0.255
20.724,-0.275
20.728,-0.265
20.732,-0.255
20.736,-0.240
20.740,-0.225
20.744,-0.235
20.748,-0.235
20.752,-0.245
20.756,-0.235
20.760,-0.225
20.764,-0.225
20.768,-0.240
20.772,-0.245
20.776,-0.225
20.780,-0.205
20.784,-0.195
20.788,-0.210
20.792,-0.210
20.796,-0.210
20.800,-0.210
20.804,-0.200
20.808,-0.205
20.812,-0.165
20.816,-0.180
20.820,-0.160
20.824,-0.140
20.828,-0.110
20.832,-0.070
20.836,-0.055
20.840,-0.030
20.844,-0.025
20.848,-0.020
20.852,0.005
20.856,0.000
20.860,0.035
20.864,0.045
20.868,0.035
20.872,0.005
20.876,0.015
20.880,0.030
20.884,0.005
20.888,0.035
20.892,0.030
20.896,0.010
20.900,-0.005
20.904,-0.020
20.908,-0.030
20.912,-0.090
20.916,-0.095
20.920,-0.085
20.924,-0.070
20.928,-0.100
20.932,-0.130
20.936,-0.165
20.940,-0.190
20.944,-0.235
20.948,-0.250
20.952,-0.260
20.956,-0.250
20.960,-0.280
20.964,-0.255
20.968,-0.270
20.972,-0.310
20.976,-0.315
20.980,-0.320
20.984,-0.315
20.988,-0.345
20.992,-0.355
20.996,-0.340
21.000,-0.310
21.004,-0.315
21.008,-0.295
21.012,-0.290
21.016,-0.295
21.020,-0.315
21.024,-0.340
21.028,-0.345
21.032,-0.330
21.036,-0.310
21.040,-0.300
21.044,-0.300
21.048,-0.285
21.052,-0.295
21.056,-0.295
21.060,-0.305
21.064,-0.295
21.068,-0.270
21.072,-0.260
21.076,-0.265
21.080,-0.270
21.084,-0.260
21.088,-0.285
21.092,-0.255
21.096,-0.260
21.100,-0.295
21.104,-0.300
21.108,-0.260
21.112,-0.250
21.116,-0.210
21.120,-0.190
21.124,-0.215
21.128,-0.225
21.132,-0.210
21.136,-0.210
21.140,-0.200
21.144,-0.210
21.148,-0.210
21.152,-0.215
21.156,-0.220
21.160,-0.195
21.164,-0.220
21.168,-0.240
21.172,-0.235
21.176,-0.225
21.180,-0.225
21.184,-0.245
21.188,-0.265
21.192,-0.235
21.196,-0.265
21.200,-0.245
21.204,-0.240
21.208,-0.260
21.212,-0.265
21.216,-0.280
21.220,-0.290
21.224,-0.285
21.228,-0.330
21.232,-0.360
21.236,-0.365
21.240,-0.360
21.244,-0.305
21.248,-0.180
21.252,0.095
21.256,0.415
21.260,0.770
21.264,0.960
21.268,0.850
21.272,0.445
21.276,-0.040
21.280,-0.510
21.284,-0.820
21.288,-0.900
21.292,-0.830
21.296,-0.700
21.300,-0.515
21.304,-0.355
21.308,-0.270
21.312,-0.235
21.316,-0.240
21.320,-0.225
21.324,-0.195
21.328,-0.235
21.332,-0.235
21.336,-0.235
21.340,-0.245
21.344,-0.225
21.348,-0.235
21.352,-0.240
21.356,-0.245
21.360,-0.255
21.364,-0.240
21.368,-0.235
21.372,-0.240
21.376,-0.235
21.380,-0.215
21.384,-0.245
21.388,-0.250
21.392,-0.245
21.396,-0.245
21.400,-0.245
21.404,-0.225
21.408,-0.215
21.412,-0.200
21.416,-0.180
21.420,-0.195
21.424,-0.205
21.428,-0.165
21.432,-0.160
21.436,-0.175
21.440,-0.160
21.444,-0.160
21.448,-0.115
21.452,-0.110
21.456,-0.095
21.460,-0.035
21.464,-0.025
21.468,0.000
21.472,0.015
21.476,0.005
21.480,0.005
21.484,0.035
21.488,0.060
21.492,0.075
21.496,0.070
21.500,0.065
21.504,0.020
21.508,-0.010
21.512,-0.030
21.516,-0.010
21.520,-0.005
21.524,-0.015
21.528,0.010
21.532,0.000
21.536,-0.020
21.540,-0.070
21.544,-0.080
21.548,-0.120
21.552,-0.135
21.556,-0.130
21.560,-0.135
21.564,-0.155
21.568,-0.190
21.572,-0.210
21.576,-0.225
21.580,-0.210
21.584,-0.240
21.588,-0.265
21.592,-0.285
21.596,-0.290
21.600,-0.295
21.604,-0.270
21.608,-0.265
21.612,-0.240
21.616,-0.240
21.620,-0.260
21.624,-0.305
21.628,-0.305
21.632,-0.290
21.636,-0.295
21.640,-0.295
21.644,-0.300
21.648,-0.305
21.652,-0.260
21.656,-0.270
21.660,-0.280
21.664,-0.245
21.668,-0.240
21.672,-0.270
21.676,-0.295
21.680,-0.305
21.684,-0.295
21.688,-0.305
21.692,-0.335
21.696,-0.355
21.700,-0.335
21.704,-0.335
21.708,-0.345
21.712,-0.375
21.716,-0.365
21.720,-0.310
21.724,-0.285
21.728,-0.260
21.732,-0.255
21.736,-0.275
21.740,-0.270
21.744,-0.295
21.748,-0.290
21.752,-0.280
21.756,-0.340
21.760,-0.435
21.764,-0.510
21.768,-0.545
21.772,-0.550
21.776,-0.460
21.780,-0.220
21.784,0.175
21.788,0.605
21.792,0.905
21.796,1.000
21.800,0.755
21.804,0.180
21.808,-0.415
21.812,-0.825
21.816,-0.940
21.820,-0.855
21.824,-0.660
21.828,-0.460
21.832,-0.335
21.836,-0.320
21.840,-0.325
21.844,-0.320
21.848,-0.320
21.852,-0.295
21.856,-0.280
21.860,-0.265
21.864,-0.250
21.868,-0.275
21.872,-0.260
21.876,-0.270
21.880,-0.280
21.884,-0.305
21.888,-0.330
21.892,-0.340
21.896,-0.335
21.900,-0.290
21.904,-0.280
21.908,-0.270
21.912,-0.230
21.916,-0.190
21.920,-0.205
21.924,-0.220
21.928,-0.235
21.932,-0.245
21.936,-0.285
21.940,-0.280
21.944,-0.220
21.948,-0.190
21.952,-0.190
21.956,-0.145
21.960,-0.115
21.964,-0.115
21.968,-0.150
21.972,-0.175
21.976,-0.125
21.980,-0.145
21.984,-0.095
21.988,-0.095
21.992,-0.020
21.996,0.005
22.000,0.025
22.004,0.050
22.008,0.025
22.012,0.040
22.016,0.045
22.020,0.055
22.024,0.070
22.028,0.105
22.032,0.110
22.036,0.065
22.040,0.035
22.044,0.065
22.048,0.020
22.052,-0.010
22.056,0.000
22.060,-0.025
22.064,-0.060
22.068,-0.095
22.072,-0.125
22.076,-0.170
22.080,-0.165
22.084,-0.160
22.088,-0.130
22.092,-0.170
22.096,-0.225
22.100,-0.260
22.104,-0.230
22.108,-0.205
22.112,-0.215
22.116,-0.235
22.120,-0.240
22.124,-0.220
22.128,-0.240
22.132,-0.315
22.136,-0.280
22.140,-0.240
22.144,-0.235
22.148,-0.270
22.152,-0.250
22.156,-0.210
22.160,-0.205
22.164,-0.250
22.168,-0.260
22.172,-0.260
22.176,-0.250
22.180,-0.240
22.184,-0.235
22.188,-0.230
22.192,-0.200
22.196,-0.200
22.200,-0.220
22.204,-0.265
22.208,-0.260
22.212,-0.225
22.216,-0.190
22.220,-0.215
22.224,-0.190
22.228,-0.200
22.232,-0.230
22.236,-0.225
22.240,-0.205
22.244,-0.200
22.248,-0.245
22.252,-0.265
22.256,-0.255
22.260,-0.270
22.264,-0.300
22.268,-0.275
22.272,-0.230
22.276,-0.205
22.280,-0.145
22.284,-0.125
22.288,-0.170
22.292,-0.250
22.296,-0.255
22.300,-0.225
22.304,-0.235
22.308,-0.230
22.312,-0.230
22.316,-0.245
22.320,-0.240
22.324,-0.225
22.328,-0.220
22.332,-0.230
22.336,-0.250
22.340,-0.250
22.344,-0.230
22.348,-0.220
22.352,-0.245
22.356,-0.240
22.360,-0.245
22.364,-0.255
22.368,-0.235
22.372,-0.190
22.376,-0.245
22.380,-0.260
22.384,-0.245
22.388,-0.280
22.392,-0.305
22.396,-0.315
22.400,-0.250
22.404,-0.080
22.408,0.195
22.412,0.555
22.416,0.920
22.420,1.165
22.424,1.155
22.428,0.765
22.432,0.145
22.436,-0.440
22.440,-0.825
22.444,-0.935
22.448,-0.855
22.452,-0.640
22.456,-0.450
22.460,-0.305
22.464,-0.250
22.468,-0.250
22.472,-0.260
22.476,-0.250
22.480,-0.245
22.484,-0.250
22.488,-0.240
22.492,-0.260
22.496,-0.260
22.500,-0.260
22.504,-0.255
22.508,-0.275
22.512,-0.285
22.516,-0.285
22.520,-0.280
22.524,-0.255
22.528,-0.250
22.532,-0.265
22.536,-0.250
22.540,-0.255
22.544,-0.260
22.548,-0.265
22.552,-0.260
22.556,-0.250
22.560,-0.235
22.564,-0.225
22.568,-0.225
22.572,-0.200
22.576,-0.195
22.580,-0.180
22.584,-0.175
22.588,-0.180
22.592,-0.150
22.596,-0.160
22.600,-0.150
22.604,-0.135
22.608,-0.115
22.612,-0.120
22.616,-0.105
22.620,-0.060
22.624,-0.075
22.628,-0.065
22.632,-0.045
22.636,0.005
22.640,0.050
22.644,0.075
22.648,0.105
22.652,0.075
22.656,0.055
22.660,0.040
22.664,0.030
22.668,0.050
22.672,0.010
22.676,-0.005
22.680,-0.020
22.684,-0.040
22.688,-0.040
22.692,-0.070
22.696,-0.080
22.700,-0.125
22.704,-0.145
22.708,-0.180
22.712,-0.170
22.716,-0.190
22.720,-0.220
22.724,-0.220
22.728,-0.240
22.732,-0.240
22.736,-0.245
22.740,-0.260
22.744,-0.280
22.748,-0.300
22.752,-0.310
22.756,-0.280
22.760,-0.280
22.764,-0.300
22.768,-0.295
22.772,-0.305
22.776,-0.295
22.780,-0.290
22.784,-0.290
22.788,-0.310
22.792,-0.290
22.796,-0.295
22.800,-0.305
22.804,-0.335
22.808,-0.355
22.812,-0.400
22.816,-0.385
22.820,-0.370
22.824,-0.325
22.828,-0.270
22.832,-0.275
22.836,-0.270
22.840,-0.295
22.844,-0.295
22.848,-0.320
22.852,-0.305
22.856,-0.305
22.860,-0.300
22.864,-0.300
22.868,-0.285
22.872,-0.285
22.876,-0.300
22.880,-0.295
22.884,-0.285
22.888,-0.300
22.892,-0.300
22.896,-0.300
22.900,-0.285
22.904,-0.310
22.908,-0.285
22.912,-0.300
22.916,-0.305
22.920,-0.295
22.924,-0.275
22.928,-0.275
22.932,-0.245
22.936,-0.275
22.940,-0.285
22.944,-0.285
22.948,-0.280
22.952,-0.300
22.956,-0.300
22.960,-0.305
22.964,-0.285
22.968,-0.305
22.972,-0.285
22.976,-0.315
22.980,-0.330
22.984,-0.330
22.988,-0.370
22.992,-0.380
22.996,-0.360
23.000,-0.340
23.004,-0.305
23.008,-0.295
23.012,-0.300
23.016,-0.280
23.020,-0.275
23.024,-0.290
23.028,-0.305
23.032,-0.305
23.036,-0.315
23.040,-0.295
23.044,-0.290
23.048,-0.295
23.052,-0.315
23.056,-0.320
23.060,-0.320
23.064,-0.305
23.068,-0.285
23.072,-0.290
23.076,-0.295
23.080,-0.275
23.084,-0.305
23.088,-0.295
23.092,-0.320
23.096,-0.305
23.100,-0.310
23.104,-0.300
23.108,-0.295
23.112,-0.290
23.116,-0.320
23.120,-0.305
23.124,-0.305
23.128,-0.315
23.132,-0.305
23.136,-0.310
23.140,-0.320
23.144,-0.320
23.148,-0.345
23.152,-0.350
23.156,-0.435
23.160,-0.495
23.164,-0.495
23.168,-0.475
23.172,-0.370
23.176,-0.115
23.180,0.240
23.184,0.645
23.188,1.010
23.192,1.070
23.196,0.600
23.200,-0.130
23.204,-0.715
23.208,-1.005
23.212,-0.905
23.216,-0.680
23.220,-0.485
23.224,-0.400
23.228,-0.350
23.232,-0.360
23.236,-0.320
23.240,-0.320
23.244,-0.340
23.248,-0.345
23.252,-0.330
23.256,-0.335
23.260,-0.345
23.264,-0.330
23.268,-0.335
23.272,-0.320
23.276,-0.330
23.280,-0.315
23.284,-0.300
23.288,-0.320
23.292,-0.290
23.296,-0.315
23.300,-0.320
23.304,-0.295
23.308,-0.285
23.312,-0.290
23.316,-0.285
23.320,-0.285
23.324,-0.280
23.328,-0.240
23.332,-0.260
23.336,-0.260
23.340,-0.255
23.344,-0.260
23.348,-0.270
23.352,-0.240
23.356,-0.265
23.360,-0.270
23.364,-0.295
23.368,-0.310
23.372,-0.245
23.376,-0.190
23.380,-0.150
23.384,-0.100
23.388,-0.080
23.392,-0.065
23.396,-0.045
23.400,-0.020
23.404,-0.005
23.408,0.010
23.412,0.025
23.416,0.035
23.420,0.050
23.424,0.055
23.428,0.040
23.432,0.050
23.436,0.055
23.440,0.055
23.444,0.050
23.448,0.035
23.452,0.010
23.456,0.000
23.460,-0.045
23.464,-0.060
23.468,-0.105
23.472,-0.145
23.476,-0.155
23.480,-0.175
23.484,-0.180
23.488,-0.195
23.492,-0.195
23.496,-0.205
23.500,-0.205
23.504,-0.255
23.508,-0.275
23.512,-0.290
23.516,-0.295
23.520,-0.325
23.524,-0.325
23.528,-0.350
23.532,-0.375
23.536,-0.405
23.540,-0.395
23.544,-0.420
23.548,-0.455
23.552,-0.460
23.556,-0.435
23.560,-0.420
23.564,-0.390
23.568,-0.380
23.572,-0.385
23.576,-0.405
23.580,-0.400
23.584,-0.410
23.588,-0.375
23.592,-0.385
23.596,-0.390
23.600,-0.395
23.604,-0.375
23.608,-0.375
23.612,-0.370
23.616,-0.370
23.620,-0.375
23.624,-0.355
23.628,-0.360
23.632,-0.335
23.636,-0.330
23.640,-0.340
23.644,-0.330
23.648,-0.345
23.652,-0.350
23.656,-0.355
23.660,-0.350
23.664,-0.340
23.668,-0.330
23.672,-0.310
23.676,-0.320
23.680,-0.315
23.684,-0.350
23.688,-0.380
23.692,-0.390
23.696,-0.405
23.700,-0.380
23.704,-0.405
23.708,-0.415
23.712,-0.460
23.716,-0.470
23.720,-0.490
23.724,-0.475
23.728,-0.450
23.732,-0.435
23.736,-0.395
23.740,-0.370
23.744,-0.360
23.748,-0.360
23.752,-0.350
23.756,-0.350
23.760,-0.360
23.764,-0.360
23.768,-0.370
23.772,-0.360
23.776,-0.350
23.780,-0.345
23.784,-0.340
23.788,-0.330
23.792,-0.340
23.796,-0.320
23.800,-0.320
23.804,-0.325
23.808,-0.335
23.812,-0.325
23.816,-0.320
23.820,-0.335
23.824,-0.350
23.828,-0.350
23.832,-0.370
23.836,-0.370
23.840,-0.370
23.844,-0.375
23.848,-0.365
23.852,-0.340
23.856,-0.350
23.860,-0.345
23.864,-0.335
23.868,-0.370
23.872,-0.385
23.876,-0.425
23.880,-0.420
23.884,-0.410
23.888,-0.435
23.892,-0.445
23.896,-0.480
23.900,-0.510
23.904,-0.590
23.908,-0.610
23.912,-0.555
23.916,-0.450
23.920,-0.315
23.924,-0.035
23.928,0.315
23.932,0.645
23.936,0.930
23.940,0.865
23.944,0.350
23.948,-0.355
23.952,-0.905
23.956,-1.025
23.960,-0.855
23.964,-0.625
23.968,-0.480
23.972,-0.415
23.976,-0.355
23.980,-0.350
23.984,-0.320
23.988,-0.360
23.992,-0.340
23.996,-0.335
24.000,-0.340
24.004,-0.340
24.008,-0.335
24.012,-0.340
24.016,-0.325
24.020,-0.335
24.024,-0.315
24.028,-0.345
24.032,-0.350
24.036,-0.330
24.040,-0.340
24.044,-0.345
24.048,-0.350
24.052,-0.345
24.056,-0.360
24.060,-0.360
24.064,-0.350
24.068,-0.335
24.072,-0.355
24.076,-0.355
24.080,-0.360
24.084,-0.330
24.088,-0.295
24.092,-0.275
24.096,-0.235
24.100,-0.225
24.104,-0.220
24.108,-0.185
24.112,-0.160
24.116,-0.135
24.120,-0.135
24.124,-0.115
24.128,-0.095
24.132,-0.040
24.136,-0.025
24.140,-0.005
24.144,0.015
24.148,0.040
24.152,0.035
24.156,0.065
24.160,0.090
24.164,0.075
24.168,0.060
24.172,0.050
24.176,0.055
24.180,0.020
24.184,0.035
24.188,0.030
24.192,0.010
24.196,-0.010
24.200,-0.065
24.204,-0.075
24.208,-0.090
24.212,-0.130
24.216,-0.150
24.220,-0.175
24.224,-0.215
24.228,-0.240
24.232,-0.285
24.236,-0.335
24.240,-0.350
24.244,-0.335
24.248,-0.345
24.252,-0.330
24.256,-0.330
24.260,-0.330
24.264,-0.315
24.268,-0.315
24.272,-0.300
24.276,-0.300
24.280,-0.305
24.284,-0.300
24.288,-0.320
24.292,-0.295
24.296,-0.295
24.300,-0.315
24.304,-0.320
24.308,-0.340
24.312,-0.320
24.316,-0.320
24.320,-0.330
24.324,-0.315
24.328,-0.330
24.332,-0.315
24.336,-0.335
24.340,-0.330
24.344,-0.320
24.348,-0.300
24.352,-0.315
24.356,-0.310
24.360,-0.295
24.364,-0.325
24.368,-0.330
24.372,-0.310
24.376,-0.320
24.380,-0.295
24.384,-0.310
24.388,-0.295
24.392,-0.295
24.396,-0.320
24.400,-0.330
24.404,-0.320
24.408,-0.325
24.412,-0.305
24.416,-0.305
24.420,-0.305
24.424,-0.300
24.428,-0.305
24.432,-0.310
24.436,-0.315
24.440,-0.310
24.444,-0.320
24.448,-0.335
24.452,-0.320
24.456,-0.320
24.460,-0.350
24.464,-0.335
24.468,-0.360
24.472,-0.385
24.476,-0.355
24.480,-0.385
24.484,-0.365
24.488,-0.385
24.492,-0.380
24.496,-0.375
24.500,-0.375
24.504,-0.375
24.508,-0.380
24.512,-0.375
24.516,-0.375
24.520,-0.370
24.524,-0.370
24.528,-0.370
24.532,-0.370
24.536,-0.360
24.540,-0.365
24.544,-0.335
24.548,-0.315
24.552,-0.320
24.556,-0.310
24.560,-0.290
24.564,-0.290
24.568,-0.320
24.572,-0.320
24.576,-0.315
24.580,-0.320
24.584,-0.310
24.588,-0.295
24.592,-0.320
24.596,-0.350
24.600,-0.340
24.604,-0.335
24.608,-0.370
24.612,-0.355
24.616,-0.365
24.620,-0.355
24.624,-0.360
24.628,-0.435
24.632,-0.485
24.636,-0.495
24.640,-0.460
24.644,-0.370
24.648,-0.140
24.652,0.155
24.656,0.510
24.660,0.775
24.664,0.860
24.668,0.550
24.672,-0.040
24.676,-0.655
24.680,-1.025
24.684,-1.055
24.688,-0.900
24.692,-0.685
24.696,-0.505
24.700,-0.410
24.704,-0.380
24.708,-0.345
24.712,-0.360
24.716,-0.385
24.720,-0.380
24.724,-0.345
24.728,-0.315
24.732,-0.310
24.736,-0.310
24.740,-0.300
24.744,-0.310
24.748,-0.325
24.752,-0.305
24.756,-0.305
24.760,-0.300
24.764,-0.310
24.768,-0.335
24.772,-0.335
24.776,-0.315
24.780,-0.320
24.784,-0.315
24.788,-0.305
24.792,-0.270
24.796,-0.290
24.800,-0.270
24.804,-0.260
24.808,-0.260
24.812,-0.255
24.816,-0.260
24.820,-0.265
24.824,-0.240
24.828,-0.240
24.832,-0.240
24.836,-0.235
24.840,-0.230
24.844,-0.235
24.848,-0.220
24.852,-0.180
24.856,-0.190
24.860,-0.120
24.864,-0.115
24.868,-0.100
24.872,-0.070
24.876,-0.050
24.880,-0.010
24.884,-0.010
24.888,0.015
24.892,0.025
24.896,0.030
24.900,0.030
24.904,0.030
24.908,0.045
24.912,0.040
24.916,0.030
24.920,0.000
24.924,-0.005
24.928,-0.020
24.932,-0.055
24.936,-0.065
24.940,-0.115
24.944,-0.115
24.948,-0.125
24.952,-0.140
24.956,-0.190
24.960,-0.190
24.964,-0.215
24.968,-0.230
24.972,-0.250
24.976,-0.260
24.980,-0.275
24.984,-0.270
24.988,-0.285
24.992,-0.275
24.996,-0.265
25.000,-0.275
25.004,-0.295
25.008,-0.310
25.012,-0.305
25.016,-0.310
25.020,-0.310
25.024,-0.320
25.028,-0.320
25.032,-0.285
25.036,-0.285
25.040,-0.285
25.044,-0.315
25.048,-0.320
25.052,-0.305
25.056,-0.305
25.060,-0.305
25.064,-0.320
25.068,-0.305
25.072,-0.300
25.076,-0.310
25.080,-0.315
25.084,-0.320
25.088,-0.310
25.092,-0.305
25.096,-0.295
25.100,-0.280
25.104,-0.295
25.108,-0.305
25.112,-0.305
25.116,-0.320
25.120,-0.320
25.124,-0.300
25.128,-0.275
25.132,-0.260
25.136,-0.265
25.140,-0.255
25.144,-0.270
25.148,-0.280
25.152,-0.285
25.156,-0.285
25.160,-0.275
25.164,-0.300
25.168,-0.305
25.172,-0.305
25.176,-0.330
25.180,-0.320
25.184,-0.320
25.188,-0.320
25.192,-0.300
25.196,-0.325
25.200,-0.330
25.204,-0.320
25.208,-0.320
25.212,-0.335
25.216,-0.340
25.220,-0.340
25.224,-0.360
25.228,-0.340
25.232,-0.345
25.236,-0.345
25.240,-0.320
25.244,-0.335
25.248,-0.345
25.252,-0.340
25.256,-0.355
25.260,-0.360
25.264,-0.430
25.268,-0.415
25.272,-0.400
25.276,-0.345
25.280,-0.265
25.284,-0.040
25.288,0.260
25.292,0.575
25.296,0.870
25.300,0.990
25.304,0.770
25.308,0.235
25.312,-0.320
25.316,-0.765
25.320,-0.895
25.324,-0.820
25.328,-0.610
25.332,-0.425
25.336,-0.325
25.340,-0.275
25.344,-0.265
25.348,-0.275
25.352,-0.280
25.356,-0.285
25.360,-0.270
25.364,-0.290
25.368,-0.295
25.372,-0.290
25.376,-0.290
25.380,-0.310
25.384,-0.295
25.388,-0.300
25.392,-0.325
25.396,-0.330
25.400,-0.305
25.404,-0.290
25.408,-0.270
25.412,-0.260
25.416,-0.260
25.420,-0.270
25.424,-0.275
25.428,-0.260
25.432,-0.235
25.436,-0.225
25.440,-0.205
25.444,-0.205
25.448,-0.190
25.452,-0.175
25.456,-0.175
25.460,-0.135
25.464,-0.125
25.468,-0.115
25.472,-0.120
25.476,-0.110
25.480,-0.115
25.484,-0.100
25.488,-0.065
25.492,-0.020
25.496,-0.035
25.500,-0.010
25.504,-0.005
25.508,-0.010
25.512,0.000
25.516,0.020
25.520,0.030
25.524,0.040
25.528,0.030
25.532,0.035
25.536,0.050
25.540,0.055
25.544,0.050
25.548,0.055
25.552,0.030
25.556,0.015
25.560,0.015
25.564,-0.015
25.568,-0.050
25.572,-0.050
25.576,-0.070
25.580,-0.080
25.584,-0.110
25.588,-0.135
25.592,-0.150
25.596,-0.190
25.600,-0.180
25.604,-0.180
25.608,-0.195
25.612,-0.230
25.616,-0.225
25.620,-0.220
25.624,-0.230
25.628,-0.240
25.632,-0.235
25.636,-0.230
25.640,-0.245
25.644,-0.235
25.648,-0.255
25.652,-0.255
25.656,-0.280
25.660,-0.295
25.664,-0.300
25.668,-0.300
25.672,-0.310
25.676,-0.295
25.680,-0.305
25.684,-0.310
25.688,-0.320
25.692,-0.315
25.696,-0.315
25.700,-0.310
25.704,-0.305
25.708,-0.300
25.712,-0.300
25.716,-0.250
25.720,-0.225
25.724,-0.225
25.728,-0.240
25.732,-0.240
25.736,-0.250
25.740,-0.240
25.744,-0.230
25.748,-0.240
25.752,-0.245
25.756,-0.245
25.760,-0.235
25.764,-0.215
25.768,-0.225
25.772,-0.215
25.776,-0.220
25.780,-0.215
25.784,-0.225
25.788,-0.190
25.792,-0.200
25.796,-0.205
25.800,-0.205
25.804,-0.205
25.808,-0.245
25.812,-0.240
25.816,-0.245
25.820,-0.255
25.824,-0.280
25.828,-0.290
25.832,-0.300
25.836,-0.320
25.840,-0.305
25.844,-0.305
25.848,-0.305
25.852,-0.305
25.856,-0.330
25.860,-0.305
25.864,-0.315
25.868,-0.310
25.872,-0.345
25.876,-0.370
25.880,-0.355
25.884,-0.330
25.888,-0.325
25.892,-0.295
25.896,-0.285
25.900,-0.250
25.904,-0.250
25.908,-0.260
25.912,-0.240
25.916,-0.235
25.920,-0.230
25.924,-0.235
25.928,-0.230
25.932,-0.215
25.936,-0.225
25.940,-0.230
25.944,-0.210
25.948,-0.235
25.952,-0.230
25.956,-0.230
25.960,-0.200
25.964,-0.230
25.968,-0.225
25.972,-0.230
25.976,-0.230
25.980,-0.230
25.984,-0.250
25.988,-0.240
25.992,-0.275
25.996,-0.270
26.000,-0.225
26.004,-0.245
26.008,-0.250
26.012,-0.250
26.016,-0.275
26.020,-0.270
26.024,-0.255
26.028,-0.265
26.032,-0.270
26.036,-0.275
26.040,-0.250
26.044,-0.270
26.048,-0.270
26.052,-0.260
26.056,-0.250
26.060,-0.265
26.064,-0.250
26.068,-0.270
26.072,-0.270
26.076,-0.255
26.080,-0.280
26.084,-0.270
26.088,-0.260
26.092,-0.305
26.096,-0.300
26.100,-0.305
26.104,-0.315
26.108,-0.265
26.112,-0.210
26.116,-0.170
26.120,-0.180
26.124,-0.165
26.128,-0.175
26.132,-0.170
26.136,-0.160
26.140,-0.175
26.144,-0.180
26.148,-0.185
26.152,-0.190
26.156,-0.190
26.160,-0.195
26.164,-0.195
26.168,-0.195
26.172,-0.205
26.176,-0.200
26.180,-0.185
26.184,-0.195
26.188,-0.180
26.192,-0.190
26.196,-0.210
26.200,-0.215
26.204,-0.210
26.208,-0.180
26.212,-0.180
26.216,-0.200
26.220,-0.215
26.224,-0.220
26.228,-0.220
26.232,-0.215
26.236,-0.200
26.240,-0.210
26.244,-0.225
26.248,-0.225
26.252,-0.215
26.256,-0.210
26.260,-0.240
26.264,-0.225
26.268,-0.245
26.272,-0.265
26.276,-0.280
26.280,-0.290
26.284,-0.265
26.288,-0.210
26.292,-0.180
26.296,-0.170
26.300,-0.180
26.304,-0.180
26.308,-0.180
26.312,-0.170
26.316,-0.150
26.320,-0.165
26.324,-0.160
26.328,-0.170
26.332,-0.165
26.336,-0.175
26.340,-0.160
26.344,-0.160
26.348,-0.150
26.352,-0.145
26.356,-0.155
26.360,-0.130
26.364,-0.150
26.368,-0.150
26.372,-0.130
26.376,-0.130
26.380,-0.160
26.384,-0.160
26.388,-0.150
26.392,-0.135
26.396,-0.130
26.400,-0.150
26.404,-0.210
26.408,-0.260
26.412,-0.315
26.416,-0.310
26.420,-0.295
26.424,-0.155
26.428,0.115
26.432,0.455
26.436,0.790
26.440,0.985
26.444,0.915
26.448,0.385
26.452,-0.280
26.456,-0.770
26.460,-0.895
26.464,-0.735
26.468,-0.540
26.472,-0.350
26.476,-0.245
26.480,-0.210
26.484,-0.180
26.488,-0.200
26.492,-0.210
26.496,-0.205
26.500,-0.195
26.504,-0.210
26.508,-0.185
26.512,-0.180
26.516,-0.170
26.520,-0.170
26.524,-0.180
26.528,-0.180
26.532,-0.190
26.536,-0.165
26.540,-0.155
26.544,-0.170
26.548,-0.180
26.552,-0.175
26.556,-0.175
26.560,-0.180
26.564,-0.160
26.568,-0.145
26.572,-0.135
26.576,-0.125
26.580,-0.115
26.584,-0.100
26.588,-0.090
26.592,-0.085
26.596,-0.090
26.600,-0.105
26.604,-0.115
26.608,-0.140
26.612,-0.145
26.616,-0.140
26.620,-0.120
26.624,-0.095
26.628,-0.025
26.632,0.000
26.636,0.045
26.640,0.075
26.644,0.130
26.648,0.145
26.652,0.140
26.656,0.145
26.660,0.160
26.664,0.155
26.668,0.150
26.672,0.165
26.676,0.165
26.680,0.160
26.684,0.145
26.688,0.175
26.692,0.160
26.696,0.135
26.700,0.125
26.704,0.135
26.708,0.135
26.712,0.110
26.716,0.070
26.720,0.050
26.724,0.035
26.728,0.025
26.732,0.010
26.736,-0.010
26.740,-0.005
26.744,-0.045
26.748,-0.065
26.752,-0.090
26.756,-0.080
26.760,-0.125
26.764,-0.130
26.768,-0.165
26.772,-0.205
26.776,-0.230
26.780,-0.235
26.784,-0.180
26.788,-0.160
26.792,-0.135
26.796,-0.130
26.800,-0.155
26.804,-0.155
26.808,-0.150
26.812,-0.155
26.816,-0.140
26.820,-0.140
26.824,-0.125
26.828,-0.105
26.832,-0.115
26.836,-0.135
26.840,-0.135
26.844,-0.115
26.848,-0.120
26.852,-0.120
26.856,-0.145
26.860,-0.145
26.864,-0.165
26.868,-0.160
26.872,-0.175
26.876,-0.190
26.880,-0.200
26.884,-0.180
26.888,-0.170
26.892,-0.180
26.896,-0.175
26.900,-0.195
26.904,-0.190
26.908,-0.180
26.912,-0.195
26.916,-0.185
26.920,-0.180
26.924,-0.205
26.928,-0.225
26.932,-0.185
26.936,-0.200
26.940,-0.235
26.944,-0.240
26.948,-0.275
26.952,-0.285
26.956,-0.205
26.960,-0.195
26.964,-0.200
26.968,-0.180
26.972,-0.145
26.976,-0.160
26.980,-0.160
26.984,-0.145
26.988,-0.140
26.992,-0.135
26.996,-0.130
27.000,-0.130
27.004,-0.130
27.008,-0.120
27.012,-0.125
27.016,-0.120
27.020,-0.100
27.024,-0.115
27.028,-0.145
27.032,-0.225
27.036,-0.285
27.040,-0.310
27.044,-0.270
27.048,-0.145
27.052,0.130
27.056,0.470
27.060,0.775
27.064,0.975
27.068,0.855
27.072,0.360
27.076,-0.240
27.080,-0.710
27.084,-0.880
27.088,-0.755
27.092,-0.555
27.096,-0.360
27.100,-0.285
27.104,-0.270
27.108,-0.285
27.112,-0.305
27.116,-0.235
27.120,-0.190
27.124,-0.170
27.128,-0.150
27.132,-0.155
27.136,-0.155
27.140,-0.150
27.144,-0.150
27.148,-0.155
27.152,-0.135
27.156,-0.135
27.160,-0.135
27.164,-0.140
27.168,-0.120
27.172,-0.120
27.176,-0.105
27.180,-0.090
27.184,-0.115
27.188,-0.105
27.192,-0.105
27.196,-0.095
27.200,-0.085
27.204,-0.075
27.208,-0.080
27.212,-0.095
27.216,-0.095
27.220,-0.065
27.224,-0.055
27.228,-0.020
27.232,-0.015
27.236,-0.005
27.240,0.005
27.244,0.015
27.248,0.040
27.252,0.035
27.256,0.035
27.260,0.045
27.264,0.060
27.268,0.110
27.272,0.170
27.276,0.205
27.280,0.185
27.284,0.185
27.288,0.210
27.292,0.235
27.296,0.225
27.300,0.225
27.304,0.210
27.308,0.215
27.312,0.175
27.316,0.170
27.320,0.160
27.324,0.130
27.328,0.085
27.332,0.085
27.336,0.075
27.340,0.065
27.344,0.005
27.348,-0.040
27.352,-0.045
27.356,-0.095
27.360,-0.115
27.364,-0.120
27.368,-0.165
27.372,-0.175
27.376,-0.210
27.380,-0.215
27.384,-0.210
27.388,-0.220
27.392,-0.240
27.396,-0.275
27.400,-0.275
27.404,-0.295
27.408,-0.270
27.412,-0.245
27.416,-0.195
27.420,-0.195
27.424,-0.180
27.428,-0.160
27.432,-0.195
27.436,-0.200
27.440,-0.180
27.444,-0.205
27.448,-0.165
27.452,-0.160
27.456,-0.155
27.460,-0.160
27.464,-0.165
27.468,-0.155
27.472,-0.140
27.476,-0.150
27.480,-0.135
27.484,-0.115
27.488,-0.150
27.492,-0.145
27.496,-0.135
27.500,-0.150
27.504,-0.145
27.508,-0.155
27.512,-0.170
27.516,-0.170
27.520,-0.150
27.524,-0.180
27.528,-0.210
27.532,-0.220
27.536,-0.210
27.540,-0.200
27.544,-0.230
27.548,-0.260
27.552,-0.245
27.556,-0.230
27.560,-0.180
27.564,-0.145
27.568,-0.170
27.572,-0.175
27.576,-0.180
27.580,-0.170
27.584,-0.160
27.588,-0.175
27.592,-0.185
27.596,-0.170
27.600,-0.180
27.604,-0.180
27.608,-0.175
27.612,-0.160
27.616,-0.180
27.620,-0.190
27.624,-0.185
27.628,-0.195
27.632,-0.160
27.636,-0.185
27.640,-0.200
27.644,-0.175
27.648,-0.205
27.652,-0.265
27.656,-0.305
27.660,-0.315
27.664,-0.335
27.668,-0.245
27.672,-0.010
27.676,0.280
27.680,0.630
27.684,0.910
27.688,0.920
27.692,0.540
27.696,-0.045
27.700,-0.610
27.704,-0.935
27.708,-0.955
27.712,-0.780
27.716,-0.510
27.720,-0.320
27.724,-0.225
27.728,-0.215
27.732,-0.185
27.736,-0.185
27.740,-0.180
27.744,-0.195
27.748,-0.195
27.752,-0.185
27.756,-0.165
27.760,-0.190
27.764,-0.190
27.768,-0.190
27.772,-0.190
27.776,-0.190
27.780,-0.195
27.784,-0.175
27.788,-0.170
27.792,-0.180
27.796,-0.170
27.800,-0.185
27.804,-0.175
27.808,-0.135
27.812,-0.135
27.816,-0.160
27.820,-0.160
27.824,-0.140
27.828,-0.095
27.832,-0.095
27.836,-0.075
27.840,-0.065
27.844,-0.070
27.848,-0.080
27.852,-0.080
27.856,-0.070
27.860,-0.090
27.864,-0.105
27.868,-0.075
27.872,-0.065
27.876,-0.020
27.880,0.020
27.884,0.040
27.888,0.060
27.892,0.090
27.896,0.100
27.900,0.115
27.904,0.110
27.908,0.100
27.912,0.115
27.916,0.105
27.920,0.110
27.924,0.095
27.928,0.075
27.932,0.065
27.936,0.055
27.940,0.035
27.944,0.030
27.948,0.015
27.952,-0.025
27.956,-0.055
27.960,-0.050
27.964,-0.075
27.968,-0.105
27.972,-0.130
27.976,-0.140
27.980,-0.170
27.984,-0.170
27.988,-0.170
27.992,-0.145
27.996,-0.145
28.000,-0.145
28.004,-0.165
28.008,-0.175
28.012,-0.225
28.016,-0.230
28.020,-0.250
28.024,-0.250
28.028,-0.240
28.032,-0.275
28.036,-0.265
28.040,-0.245
28.044,-0.250
28.048,-0.240
28.052,-0.225
28.056,-0.230
28.060,-0.215
28.064,-0.205
28.068,-0.220
28.072,-0.210
28.076,-0.220
28.080,-0.220
28.084,-0.215
28.088,-0.210
28.092,-0.190
28.096,-0.205
28.100,-0.220
28.104,-0.200
28.108,-0.225
28.112,-0.210
28.116,-0.195
28.120,-0.180
28.124,-0.220
28.128,-0.195
28.132,-0.220
28.136,-0.210
28.140,-0.205
28.144,-0.205
28.148,-0.210
28.152,-0.205
28.156,-0.195
28.160,-0.190
28.164,-0.195
28.168,-0.205
28.172,-0.180
28.176,-0.200
28.180,-0.220
28.184,-0.205
28.188,-0.210
28.192,-0.245
28.196,-0.260
28.200,-0.270
28.204,-0.255
28.208,-0.235
28.212,-0.210
28.216,-0.205
28.220,-0.210
28.224,-0.225
28.228,-0.215
28.232,-0.235
28.236,-0.225
28.240,-0.200
28.244,-0.230
28.248,-0.210
28.252,-0.225
28.256,-0.230
28.260,-0.225
28.264,-0.225
28.268,-0.245
28.272,-0.300
28.276,-0.345
28.280,-0.350
28.284,-0.330
28.288,-0.255
28.292,-0.070
28.296,0.215
28.300,0.550
28.304,0.885
28.308,0.995
28.312,0.710
28.316,0.135
28.320,-0.465
28.324,-0.840
28.328,-0.870
28.332,-0.705
28.336,-0.505
28.340,-0.350
28.344,-0.270
28.348,-0.250
28.352,-0.255
28.356,-0.265
28.360,-0.285
28.364,-0.295
28.368,-0.315
28.372,-0.310
28.376,-0.290
28.380,-0.320
28.384,-0.305
28.388,-0.260
28.392,-0.230
28.396,-0.240
28.400,-0.240
28.404,-0.220
28.408,-0.245
28.412,-0.220
28.416,-0.220
28.420,-0.225
28.424,-0.220
28.428,-0.195
28.432,-0.180
28.436,-0.200
28.440,-0.155
28.444,-0.145
28.448,-0.155
28.452,-0.105
28.456,-0.100
28.460,-0.090
28.464,-0.085
28.468,-0.070
28.472,-0.085
28.476,-0.070
28.480,-0.050
28.484,-0.030
28.488,-0.005
28.492,-0.005
28.496,-0.005
28.500,0.015
28.504,0.040
28.508,0.065
28.512,0.070
28.516,0.085
28.520,0.070
28.524,0.075
28.528,0.060
28.532,0.065
28.536,0.055
28.540,0.045
28.544,0.035
28.548,0.015
28.552,0.015
28.556,0.015
28.560,0.020
28.564,0.035
28.568,0.015
28.572,-0.015
28.576,-0.010
28.580,-0.045
28.584,-0.050
28.588,-0.090
28.592,-0.105
28.596,-0.120
28.600,-0.150
28.604,-0.150
28.608,-0.170
28.612,-0.200
28.616,-0.200
28.620,-0.185
28.624,-0.185
28.628,-0.215
28.632,-0.200
28.636,-0.210
28.640,-0.205
28.644,-0.230
28.648,-0.210
28.652,-0.225
28.656,-0.245
28.660,-0.270
28.664,-0.275
28.668,-0.305
28.672,-0.300
28.676,-0.280
28.680,-0.305
28.684,-0.305
28.688,-0.290
28.692,-0.285
28.696,-0.315
28.700,-0.285
28.704,-0.290
28.708,-0.300
28.712,-0.320
28.716,-0.310
28.720,-0.300
28.724,-0.310
28.728,-0.335
28.732,-0.295
28.736,-0.285
28.740,-0.280
28.744,-0.265
28.748,-0.275
28.752,-0.275
28.756,-0.285
28.760,-0.285
28.764,-0.250
28.768,-0.265
28.772,-0.275
28.776,-0.280
28.780,-0.265
28.784,-0.265
28.788,-0.280
28.792,-0.280
28.796,-0.295
28.800,-0.290
28.804,-0.280
28.808,-0.270
28.812,-0.245
28.816,-0.270
28.820,-0.280
28.824,-0.285
28.828,-0.280
28.832,-0.280
28.836,-0.295
28.840,-0.310
28.844,-0.315
28.848,-0.300
28.852,-0.290
28.856,-0.300
28.860,-0.260
28.864,-0.265
28.868,-0.265
28.872,-0.260
28.876,-0.270
28.880,-0.285
28.884,-0.285
28.888,-0.280
28.892,-0.305
28.896,-0.350
28.900,-0.355
28.904,-0.345
28.908,-0.325
28.912,-0.310
28.916,-0.300
28.920,-0.300
28.924,-0.295
28.928,-0.300
28.932,-0.305
28.936,-0.295
28.940,-0.285
28.944,-0.310
28.948,-0.290
28.952,-0.315
28.956,-0.295
28.960,-0.285
28.964,-0.285
28.968,-0.280
28.972,-0.290
28.976,-0.300
28.980,-0.325
28.984,-0.365
28.988,-0.400
28.992,-0.385
28.996,-0.325
29.000,-0.190
29.004,0.055
29.008,0.365
29.012,0.705
29.016,0.875
29.020,0.790
29.024,0.315
29.028,-0.290
29.032,-0.785
29.036,-0.940
29.040,-0.870
29.044,-0.665
29.048,-0.475
29.052,-0.350
29.056,-0.300
29.060,-0.270
29.064,-0.275
29.068,-0.280
29.072,-0.295
29.076,-0.335
29.080,-0.340
29.084,-0.345
29.088,-0.325
29.092,-0.295
29.096,-0.265
29.100,-0.275
29.104,-0.275
29.108,-0.285
29.112,-0.285
29.116,-0.280
29.120,-0.295
29.124,-0.285
29.128,-0.295
29.132,-0.265
29.136,-0.255
29.140,-0.255
29.144,-0.260
29.148,-0.240
29.152,-0.255
29.156,-0.250
29.160,-0.240
29.164,-0.215
29.168,-0.185
29.172,-0.160
29.176,-0.160
29.180,-0.105
29.184,-0.080
29.188,-0.060
29.192,-0.065
29.196,-0.060
29.200,-0.075
29.204,-0.050
29.208,-0.025
29.212,-0.025
29.216,-0.005
29.220,0.030
29.224,0.030
29.228,0.040
29.232,0.085
29.236,0.080
29.240,0.075
29.244,0.070
29.248,0.075
29.252,0.045
29.256,0.080
29.260,0.105
29.264,0.105
29.268,0.110
29.272,0.100
29.276,0.100
29.280,0.090
29.284,0.060
29.288,0.050
29.292,0.020
29.296,-0.005
29.300,-0.010
29.304,-0.035
29.308,-0.060
29.312,-0.080
29.316,-0.105
29.320,-0.105
29.324,-0.125
29.328,-0.125
29.332,-0.140
29.336,-0.170
29.340,-0.180
29.344,-0.185
29.348,-0.200
29.352,-0.210
29.356,-0.230
29.360,-0.240
29.364,-0.245
29.368,-0.230
29.372,-0.250
29.376,-0.250
29.380,-0.245
29.384,-0.260
29.388,-0.250
29.392,-0.255
29.396,-0.260
29.400,-0.250
29.404,-0.280
29.408,-0.260
29.412,-0.250
29.416,-0.250
29.420,-0.230
29.424,-0.235
29.428,-0.240
29.432,-0.230
29.436,-0.255
29.440,-0.260
29.444,-0.260
29.448,-0.260
29.452,-0.265
29.456,-0.260
29.460,-0.255
29.464,-0.270
29.468,-0.260
29.472,-0.260
29.476,-0.250
29.480,-0.245
29.484,-0.240
29.488,-0.240
29.492,-0.240
29.496,-0.240
29.500,-0.255
29.504,-0.250
29.508,-0.250
29.512,-0.270
29.516,-0.260
29.520,-0.235
29.524,-0.265
29.528,-0.280
29.532,-0.290
29.536,-0.310
29.540,-0.290
29.544,-0.290
29.548,-0.285
29.552,-0.275
29.556,-0.280
29.560,-0.295
29.564,-0.260
29.568,-0.275
29.572,-0.260
29.576,-0.250
29.580,-0.255
29.584,-0.240
29.588,-0.225
29.592,-0.210
29.596,-0.225
29.600,-0.220
29.604,-0.220
29.608,-0.215
29.612,-0.210
29.616,-0.235
29.620,-0.205
29.624,-0.235
29.628,-0.270
29.632,-0.255
29.636,-0.275
29.640,-0.260
29.644,-0.275
29.648,-0.235
29.652,-0.260
29.656,-0.255
29.660,-0.245
29.664,-0.250
29.668,-0.250
29.672,-0.255
29.676,-0.255
29.680,-0.260
29.684,-0.290
29.688,-0.295
29.692,-0.305
29.696,-0.310
29.700,-0.345
29.704,-0.320
29.708,-0.330
29.712,-0.330
29.716,-0.345
29.720,-0.370
29.724,-0.360
29.728,-0.350
29.732,-0.335
29.736,-0.345
29.740,-0.330
29.744,-0.325
29.748,-0.340
29.752,-0.340
29.756,-0.340
29.760,-0.340
29.764,-0.330
29.768,-0.355
29.772,-0.350
29.776,-0.345
29.780,-0.325
29.784,-0.335
29.788,-0.305
29.792,-0.295
29.796,-0.280
29.800,-0.265
29.804,-0.240
29.808,-0.270
29.812,-0.265
29.816,-0.300
29.820,-0.325
29.824,-0.370
29.828,-0.380
29.832,-0.355
29.836,-0.305
29.840,-0.160
29.844,0.120
29.848,0.425
29.852,0.725
29.856,0.925
29.860,0.825
29.864,0.340
29.868,-0.260
29.872,-0.790
29.876,-1.030
29.880,-0.945
29.884,-0.750
29.888,-0.570
29.892,-0.445
29.896,-0.385
29.900,-0.360
29.904,-0.350
29.908,-0.345
29.912,-0.360
29.916,-0.340
29.920,-0.350
29.924,-0.365
29.928,-0.340
29.932,-0.345
29.936,-0.350
29.940,-0.360
29.944,-0.345
29.948,-0.345
29.952,-0.340
29.956,-0.320
29.960,-0.310
29.964,-0.280
29.968,-0.270
29.972,-0.265
29.976,-0.235
29.980,-0.245
29.984,-0.240
29.988,-0.200
29.992,-0.190
29.996,-0.170
30.000,-0.180
30.004,-0.175
30.008,-0.180
30.012,-0.185
30.016,-0.170
30.020,-0.170
30.024,-0.180
30.028,-0.195
30.032,-0.160
30.036,-0.140
30.040,-0.120
30.044,-0.095
30.048,-0.075
30.052,-0.080
30.056,-0.060
30.060,-0.030
30.064,-0.020
30.068,-0.040
30.072,-0.030
30.076,-0.010
30.080,0.000
30.084,0.000
30.088,0.020
30.092,0.030
30.096,0.030
30.100,0.025
30.104,0.035
30.108,0.040
30.112,0.015
30.116,0.030
30.120,0.030
30.124,0.000
30.128,0.005
30.132,-0.020
30.136,-0.035
30.140,-0.020
30.144,-0.040
30.148,-0.055
30.152,-0.060
30.156,-0.060
30.160,-0.075
30.164,-0.080
30.168,-0.105
30.172,-0.140
30.176,-0.150
30.180,-0.155
30.184,-0.180
30.188,-0.170
30.192,-0.210
30.196,-0.245
30.200,-0.270
30.204,-0.270
30.208,-0.270
30.212,-0.250
30.216,-0.240
30.220,-0.240
30.224,-0.250
30.228,-0.250
30.232,-0.260
30.236,-0.280
30.240,-0.295
30.244,-0.285
30.248,-0.295
30.252,-0.305
30.256,-0.310
30.260,-0.305
30.264,-0.305
30.268,-0.305
30.272,-0.280
30.276,-0.280
30.280,-0.280
30.284,-0.280
30.288,-0.265
30.292,-0.265
30.296,-0.260
30.300,-0.255
30.304,-0.265
30.308,-0.285
30.312,-0.275
30.316,-0.265
30.320,-0.245
30.324,-0.245
30.328,-0.240
30.332,-0.265
30.336,-0.255
30.340,-0.265
30.344,-0.260
30.348,-0.240
30.352,-0.210
30.356,-0.190
30.360,-0.205
30.364,-0.200
30.368,-0.210
30.372,-0.210
30.376,-0.205
30.380,-0.230
30.384,-0.220
30.388,-0.215
30.392,-0.205
30.396,-0.215
30.400,-0.235
30.404,-0.265
30.408,-0.265
30.412,-0.260
30.416,-0.270
30.420,-0.260
30.424,-0.270
30.428,-0.270
30.432,-0.285
30.436,-0.285
30.440,-0.265
30.444,-0.265
30.448,-0.265
30.452,-0.265
30.456,-0.240
30.460,-0.260
30.464,-0.270
30.468,-0.280
30.472,-0.300
30.476,-0.305
30.480,-0.300
30.484,-0.270
30.488,-0.265
30.492,-0.260
30.496,-0.255
30.500,-0.265
30.504,-0.275
30.508,-0.265
30.512,-0.260
30.516,-0.290
30.520,-0.330
30.524,-0.365
30.528,-0.360
30.532,-0.325
30.536,-0.240
30.540,-0.030
30.544,0.230
30.548,0.560
30.552,0.810
30.556,0.885
30.560,0.570
30.564,0.005
30.568,-0.535
30.572,-0.920
30.576,-0.970
30.580,-0.825
30.584,-0.620
30.588,-0.455
30.592,-0.350
30.596,-0.320
30.600,-0.295
30.604,-0.320
30.608,-0.320
30.612,-0.320
30.616,-0.315
30.620,-0.325
30.624,-0.320
30.628,-0.320
30.632,-0.330
30.636,-0.305
30.640,-0.310
30.644,-0.300
30.648,-0.290
30.652,-0.270
30.656,-0.265
30.660,-0.245
30.664,-0.250
30.668,-0.240
30.672,-0.225
30.676,-0.220
30.680,-0.225
30.684,-0.215
30.688,-0.180
30.692,-0.170
30.696,-0.145
30.700,-0.150
30.704,-0.145
30.708,-0.140
30.712,-0.120
30.716,-0.120
30.720,-0.115
30.724,-0.115
30.728,-0.105
30.732,-0.090
30.736,-0.080
30.740,-0.050
30.744,-0.050
30.748,-0.050
30.752,-0.030
30.756,-0.010
30.760,-0.010
30.764,0.010
30.768,0.030
30.772,0.035
30.776,0.030
30.780,0.020
30.784,0.040
30.788,0.045
30.792,0.045
30.796,0.045
30.800,0.055
30.804,0.060
30.808,0.010
30.812,-0.005
30.816,-0.030
30.820,-0.045
30.824,-0.045
30.828,-0.060
30.832,-0.055
30.836,-0.075
30.840,-0.100
30.844,-0.110
30.848,-0.130
30.852,-0.145
30.856,-0.150
30.860,-0.135
30.864,-0.155
30.868,-0.160
30.872,-0.190
30.876,-0.205
30.880,-0.210
30.884,-0.230
30.888,-0.240
30.892,-0.255
30.896,-0.260
30.900,-0.255
30.904,-0.270
30.908,-0.305
30.912,-0.305
30.916,-0.290
30.920,-0.305
30.924,-0.310
30.928,-0.330
30.932,-0.315
30.936,-0.315
30.940,-0.330
30.944,-0.310
30.948,-0.335
30.952,-0.310
30.956,-0.320
30.960,-0.300
30.964,-0.290
30.968,-0.265
30.972,-0.255
30.976,-0.260
30.980,-0.250
30.984,-0.265
30.988,-0.235
30.992,-0.230
30.996,-0.215
31.000,-0.240
31.004,-0.235
31.008,-0.215
31.012,-0.220
31.016,-0.220
31.020,-0.215
31.024,-0.210
31.028,-0.225
31.032,-0.225
31.036,-0.225
31.040,-0.225
31.044,-0.230
31.048,-0.240
31.052,-0.230
31.056,-0.240
31.060,-0.220
31.064,-0.210
31.068,-0.215
31.072,-0.220
31.076,-0.220
31.080,-0.230
31.084,-0.215
31.088,-0.230
31.092,-0.230
31.096,-0.270
31.100,-0.245
31.104,-0.215
31.108,-0.220
31.112,-0.250
31.116,-0.220
31.120,-0.220
31.124,-0.235
31.128,-0.225
31.132,-0.245
31.136,-0.245
31.140,-0.230
31.144,-0.225
31.148,-0.230
31.152,-0.195
31.156,-0.210
31.160,-0.220
31.164,-0.210
31.168,-0.215
31.172,-0.205
31.176,-0.205
31.180,-0.205
31.184,-0.185
31.188,-0.160
31.192,-0.175
31.196,-0.200
31.200,-0.200
31.204,-0.230
31.208,-0.220
31.212,-0.240
31.216,-0.220
31.220,-0.215
31.224,-0.225
31.228,-0.220
31.232,-0.235
31.236,-0.230
31.240,-0.240
31.244,-0.220
31.248,-0.255
31.252,-0.250
31.256,-0.250
31.260,-0.235
31.264,-0.205
31.268,-0.240
31.272,-0.250
31.276,-0.245
31.280,-0.305
31.284,-0.350
31.288,-0.330
31.292,-0.320
31.296,-0.205
31.300,0.025
31.304,0.325
31.308,0.645
31.312,0.925
31.316,0.970
31.320,0.575
31.324,0.035
31.328,-0.510
31.332,-0.845
31.336,-0.890
31.340,-0.745
31.344,-0.535
31.348,-0.385
31.352,-0.270
31.356,-0.220
31.360,-0.230
31.364,-0.255
31.368,-0.250
31.372,-0.250
31.376,-0.245
31.380,-0.230
31.384,-0.235
31.388,-0.235
31.392,-0.225
31.396,-0.195
31.400,-0.185
31.404,-0.180
31.408,-0.175
31.412,-0.185
31.416,-0.185
31.420,-0.170
31.424,-0.190
31.428,-0.155
31.432,-0.145
31.436,-0.170
31.440,-0.140
31.444,-0.140
31.448,-0.110
31.452,-0.115
31.456,-0.110
31.460,-0.085
31.464,-0.085
31.468,-0.060
31.472,-0.050
31.476,-0.070
31.480,-0.050
31.484,-0.055
31.488,-0.030
31.492,-0.010
31.496,-0.045
31.500,-0.025
31.504,0.010
31.508,0.010
31.512,0.025
31.516,0.045
31.520,0.035
31.524,0.060
31.528,0.065
31.532,0.100
31.536,0.075
31.540,0.100
31.544,0.075
31.548,0.085
31.552,0.090
31.556,0.095
31.560,0.100
31.564,0.095
31.568,0.080
31.572,0.075
31.576,0.055
31.580,0.045
31.584,0.030
31.588,0.025
31.592,0.020
31.596,0.005
31.600,-0.035
31.604,-0.025
31.608,-0.070
31.612,-0.080
31.616,-0.110
31.620,-0.145
31.624,-0.145
31.628,-0.155
31.632,-0.175
31.636,-0.200
31.640,-0.200
31.644,-0.220
31.648,-0.225
31.652,-0.240
31.656,-0.255
31.660,-0.270
31.664,-0.260
31.668,-0.250
31.672,-0.270
31.676,-0.280
31.680,-0.275
31.684,-0.270
31.688,-0.270
31.692,-0.275
31.696,-0.250
31.700,-0.250
31.704,-0.255
31.708,-0.250
31.712,-0.250
31.716,-0.240
31.720,-0.255
31.724,-0.245
31.728,-0.225
31.732,-0.210
31.736,-0.190
31.740,-0.190
31.744,-0.180
31.748,-0.185
31.752,-0.190
31.756,-0.205
31.760,-0.190
31.764,-0.180
31.768,-0.185
31.772,-0.210
31.776,-0.215
31.780,-0.215
31.784,-0.235
31.788,-0.250
31.792,-0.245
31.796,-0.265
31.800,-0.255
31.804,-0.305
31.808,-0.285
31.812,-0.270
31.816,-0.275
31.820,-0.260
31.824,-0.235
31.828,-0.230
31.832,-0.260
31.836,-0.240
31.840,-0.245
31.844,-0.240
31.848,-0.240
31.852,-0.240
31.856,-0.265
31.860,-0.240
31.864,-0.235
31.868,-0.230
31.872,-0.245
31.876,-0.250
31.880,-0.280
31.884,-0.290
31.888,-0.270
31.892,-0.270
31.896,-0.275
31.900,-0.275
31.904,-0.255
31.908,-0.300
31.912,-0.380
31.916,-0.380
31.920,-0.320
31.924,-0.225
31.928,0.000
31.932,0.295
31.936,0.635
31.940,0.895
31.944,0.900
31.948,0.465
31.952,-0.135
31.956,-0.700
31.960,-0.955
31.964,-0.895
31.968,-0.705
31.972,-0.490
31.976,-0.315
31.980,-0.255
31.984,-0.230
31.988,-0.230
31.992,-0.225
31.996,-0.220
32.000,-0.220
32.004,-0.190
32.008,-0.200
32.012,-0.225
32.016,-0.215
32.020,-0.220
32.024,-0.225
32.028,-0.195
32.032,-0.220
32.036,-0.220
32.040,-0.200
32.044,-0.220
32.048,-0.215
32.052,-0.205
32.056,-0.205
32.060,-0.195
32.064,-0.215
32.068,-0.195
32.072,-0.180
32.076,-0.200
32.080,-0.200
32.084,-0.210
32.088,-0.180
32.092,-0.180
32.096,-0.190
32.100,-0.175
32.104,-0.165
32.108,-0.130
32.112,-0.085
32.116,-0.065
32.120,-0.035
32.124,-0.010
32.128,0.015
32.132,0.050
32.136,0.070
32.140,0.110
32.144,0.135
32.148,0.160
32.152,0.180
32.156,0.185
32.160,0.195
32.164,0.220
32.168,0.220
32.172,0.225
32.176,0.205
32.180,0.210
32.184,0.200
32.188,0.180
32.192,0.170
32.196,0.135
32.200,0.100
32.204,0.075
32.208,0.055
32.212,0.000
32.216,-0.050
32.220,-0.075
32.224,-0.100
32.228,-0.145
32.232,-0.175
32.236,-0.190
32.240,-0.205
32.244,-0.205
32.248,-0.205
32.252,-0.215
32.256,-0.235
32.260,-0.210
32.264,-0.235
32.268,-0.240
32.272,-0.250
32.276,-0.250
32.280,-0.230
32.284,-0.220
32.288,-0.215
32.292,-0.215
32.296,-0.225
32.300,-0.205
32.304,-0.215
32.308,-0.210
32.312,-0.210
32.316,-0.205
32.320,-0.210
32.324,-0.190
32.328,-0.220
32.332,-0.200
32.336,-0.165
32.340,-0.190
32.344,-0.160
32.348,-0.170
32.352,-0.165
32.356,-0.175
32.360,-0.145
32.364,-0.135
32.368,-0.160
32.372,-0.175
32.376,-0.180
32.380,-0.190
32.384,-0.205
32.388,-0.230
32.392,-0.265
32.396,-0.210
32.400,-0.225
32.404,-0.190
32.408,-0.195
32.412,-0.185
32.416,-0.180
32.420,-0.145
32.424,-0.170
32.428,-0.185
32.432,-0.180
32.436,-0.175
32.440,-0.185
32.444,-0.165
32.448,-0.185
32.452,-0.195
32.456,-0.195
32.460,-0.195
32.464,-0.210
32.468,-0.195
32.472,-0.195
32.476,-0.205
32.480,-0.205
32.484,-0.200
32.488,-0.220
32.492,-0.215
32.496,-0.195
32.500,-0.195
32.504,-0.195
32.508,-0.185
32.512,-0.195
32.516,-0.215
32.520,-0.230
32.524,-0.210
32.528,-0.215
32.532,-0.240
32.536,-0.240
32.540,-0.245
32.544,-0.280
32.548,-0.285
32.552,-0.280
32.556,-0.290
32.560,-0.280
32.564,-0.230
32.568,-0.235
32.572,-0.200
32.576,-0.195
32.580,-0.200
32.584,-0.205
32.588,-0.185
32.592,-0.175
32.596,-0.145
32.600,-0.135
32.604,-0.150
32.608,-0.165
32.612,-0.180
32.616,-0.200
32.620,-0.190
32.624,-0.205
32.628,-0.180
32.632,-0.175
32.636,-0.150
32.640,-0.170
32.644,-0.180
32.648,-0.160
32.652,-0.150
32.656,-0.185
32.660,-0.220
32.664,-0.180
32.668,-0.180
32.672,-0.225
32.676,-0.270
32.680,-0.230
32.684,-0.155
32.688,-0.155
32.692,-0.235
32.696,-0.300
32.700,-0.290
32.704,-0.270
32.708,-0.310
32.712,-0.325
32.716,-0.310
32.720,-0.220
32.724,-0.245
32.728,-0.225
32.732,-0.180
32.736,-0.235
32.740,-0.295
32.744,-0.285
32.748,-0.270
32.752,-0.230
32.756,-0.230
32.760,-0.230
32.764,-0.225
32.768,-0.210
32.772,-0.185
32.776,-0.220
32.780,-0.230
32.784,-0.255
32.788,-0.280
32.792,-0.215
32.796,-0.160
32.800,-0.150
32.804,-0.165
32.808,-0.245
32.812,-0.330
32.816,-0.310
32.820,-0.210
32.824,-0.210
32.828,-0.300
32.832,-0.370
32.836,-0.380
32.840,-0.350
32.844,-0.325
32.848,-0.295
32.852,-0.265
32.856,-0.280
32.860,-0.305
32.864,-0.370
32.868,-0.365
32.872,-0.365
32.876,-0.355
32.880,-0.395
32.884,-0.460
32.888,-0.485
32.892,-0.475
32.896,-0.380
32.900,-0.170
32.904,0.110
32.908,0.390
32.912,0.655
32.916,0.905
32.920,0.870
32.924,0.360
32.928,-0.280
32.932,-0.775
32.936,-0.955
32.940,-0.905
32.944,-0.675
32.948,-0.475
32.952,-0.395
32.956,-0.365
32.960,-0.335
32.964,-0.315
32.968,-0.320
32.972,-0.300
32.976,-0.290
32.980,-0.255
32.984,-0.240
32.988,-0.260
32.992,-0.310
32.996,-0.310
33.000,-0.295
33.004,-0.265
33.008,-0.270
33.012,-0.270
33.016,-0.240
33.020,-0.260
33.024,-0.275
33.028,-0.285
33.032,-0.300
33.036,-0.290
33.040,-0.250
33.044,-0.250
33.048,-0.300
33.052,-0.280
33.056,-0.280
33.060,-0.260
33.064,-0.240
33.068,-0.225
33.072,-0.215
33.076,-0.200
33.080,-0.140
33.084,-0.140
33.088,-0.220
33.092,-0.270
33.096,-0.220
33.100,-0.120
33.104,-0.080
33.108,-0.130
33.112,-0.125
33.116,-0.085
33.120,-0.055
33.124,-0.025
33.128,0.005
33.132,0.035
33.136,0.000
33.140,-0.035
33.144,0.010
33.148,0.045
33.152,0.070
33.156,0.100
33.160,0.075
33.164,0.105
33.168,0.100
33.172,0.100
33.176,0.110
33.180,0.110
33.184,0.100
33.188,0.095
33.192,0.045
33.196,0.025
33.200,0.005
33.204,-0.015
33.208,-0.010
33.212,-0.035
33.216,-0.060
33.220,-0.065
33.224,-0.060
33.228,-0.105
33.232,-0.140
33.236,-0.160
33.240,-0.155
33.244,-0.140
33.248,-0.170
33.252,-0.160
33.256,-0.140
33.260,-0.205
33.264,-0.220
33.268,-0.195
33.272,-0.185
33.276,-0.185
33.280,-0.235
33.284,-0.235
33.288,-0.245
33.292,-0.265
33.296,-0.265
33.300,-0.275
33.304,-0.280
33.308,-0.260
33.312,-0.255
33.316,-0.265
33.320,-0.240
33.324,-0.275
33.328,-0.275
33.332,-0.245
33.336,-0.275
33.340,-0.275
33.344,-0.280
33.348,-0.270
33.352,-0.250
33.356,-0.270
33.360,-0.265
33.364,-0.270
33.368,-0.235
33.372,-0.245
33.376,-0.260
33.380,-0.230
33.384,-0.225
33.388,-0.240
33.392,-0.260
33.396,-0.305
33.400,-0.295
33.404,-0.265
33.408,-0.275
33.412,-0.260
33.416,-0.265
33.420,-0.280
33.424,-0.265
33.428,-0.245
33.432,-0.255
33.436,-0.230
33.440,-0.245
33.444,-0.230
33.448,-0.230
33.452,-0.270
33.456,-0.250
33.460,-0.220
33.464,-0.205
33.468,-0.220
33.472,-0.240
33.476,-0.275
33.480,-0.290
33.484,-0.295
33.488,-0.270
33.492,-0.275
33.496,-0.280
33.500,-0.305
33.504,-0.315
33.508,-0.285
33.512,-0.235
33.516,-0.240
33.520,-0.295
33.524,-0.285
33.528,-0.285
33.532,-0.310
33.536,-0.290
33.540,-0.280
33.544,-0.230
33.548,-0.235
33.552,-0.250
33.556,-0.240
33.560,-0.265
33.564,-0.280
33.568,-0.250
33.572,-0.220
33.576,-0.235
33.580,-0.225
33.584,-0.230
33.588,-0.230
33.592,-0.180
33.596,-0.165
33.600,-0.240
33.604,-0.285
33.608,-0.295
33.612,-0.280
33.616,-0.255
33.620,-0.215
33.624,-0.220
33.628,-0.245
33.632,-0.265
33.636,-0.295
33.640,-0.340
33.644,-0.410
33.648,-0.425
33.652,-0.395
33.656,-0.320
33.660,-0.165
33.664,0.065
33.668,0.370
33.672,0.665
33.676,0.845
33.680,0.735
33.684,0.290
33.688,-0.285
33.692,-0.765
33.696,-0.985
33.700,-0.935
33.704,-0.805
33.708,-0.555
33.712,-0.410
33.716,-0.350
33.720,-0.340
33.724,-0.335
33.728,-0.305
33.732,-0.295
33.736,-0.265
33.740,-0.285
33.744,-0.305
33.748,-0.340
33.752,-0.340
33.756,-0.335
33.760,-0.335
33.764,-0.265
33.768,-0.240
33.772,-0.215
33.776,-0.225
33.780,-0.245
33.784,-0.240
33.788,-0.220
33.792,-0.225
33.796,-0.225
33.800,-0.205
33.804,-0.230
33.808,-0.265
33.812,-0.265
33.816,-0.250
33.820,-0.220
33.824,-0.220
33.828,-0.235
33.832,-0.235
33.836,-0.240
33.840,-0.220
33.844,-0.180
33.848,-0.150
33.852,-0.150
33.856,-0.155
33.860,-0.160
33.864,-0.135
33.868,-0.115
33.872,-0.055
33.876,-0.010
33.880,-0.010
33.884,-0.025
33.888,-0.020
33.892,0.020
33.896,0.020
33.900,0.055
33.904,0.075
33.908,0.095
33.912,0.060
33.916,0.050
33.920,0.050
33.924,0.050
33.928,0.085
33.932,0.100
33.936,0.115
33.940,0.110
33.944,0.090
33.948,0.100
33.952,0.110
33.956,0.120
33.960,0.110
33.964,0.050
33.968,0.025
33.972,0.000
33.976,-0.030
33.980,-0.070
33.984,-0.115
33.988,-0.125
33.992,-0.140
33.996,-0.200
34.000,-0.220
34.004,-0.195
34.008,-0.205
34.012,-0.230
34.016,-0.235
34.020,-0.255
34.024,-0.235
34.028,-0.235
34.032,-0.255
34.036,-0.290
34.040,-0.295
34.044,-0.280
34.048,-0.280
34.052,-0.270
34.056,-0.265
34.060,-0.265
34.064,-0.300
34.068,-0.270
34.072,-0.265
34.076,-0.270
34.080,-0.280
34.084,-0.330
34.088,-0.345
34.092,-0.360
34.096,-0.345
34.100,-0.330
34.104,-0.320
34.108,-0.280
34.112,-0.240
34.116,-0.225
34.120,-0.225
34.124,-0.200
34.128,-0.175
34.132,-0.150
34.136,-0.180
34.140,-0.215
34.144,-0.210
34.148,-0.200
34.152,-0.205
34.156,-0.220
34.160,-0.210
34.164,-0.215
34.168,-0.190
34.172,-0.090
34.176,-0.110
34.180,-0.220
34.184,-0.305
34.188,-0.320
34.192,-0.295
34.196,-0.285
34.200,-0.275
34.204,-0.245
34.208,-0.275
34.212,-0.270
34.216,-0.260
34.220,-0.240
34.224,-0.230
34.228,-0.265
34.232,-0.260
34.236,-0.275
34.240,-0.295
34.244,-0.335
34.248,-0.315
34.252,-0.295
34.256,-0.320
34.260,-0.340
34.264,-0.345
34.268,-0.285
34.272,-0.240
34.276,-0.215
34.280,-0.220
34.284,-0.215
34.288,-0.190
34.292,-0.175
34.296,-0.160
34.300,-0.175
34.304,-0.205
34.308,-0.215
34.312,-0.195
34.316,-0.150
34.320,-0.145
34.324,-0.185
34.328,-0.205
34.332,-0.220
34.336,-0.240
34.340,-0.220
34.344,-0.205
34.348,-0.200
34.352,-0.210
34.356,-0.210
34.360,-0.210
34.364,-0.225
34.368,-0.235
34.372,-0.260
34.376,-0.255
34.380,-0.265
34.384,-0.255
34.388,-0.235
34.392,-0.245
34.396,-0.275
34.400,-0.275
34.404,-0.255
34.408,-0.260
34.412,-0.250
34.416,-0.240
34.420,-0.310
34.424,-0.360
34.428,-0.350
34.432,-0.335
34.436,-0.285
34.440,-0.265
34.444,-0.275
34.448,-0.265
34.452,-0.265
34.456,-0.295
34.460,-0.310
34.464,-0.325
34.468,-0.325
34.472,-0.330
34.476,-0.200
34.480,0.085
34.484,0.410
34.488,0.735
34.492,0.965
34.496,0.915
34.500,0.425
34.504,-0.175
34.508,-0.735
34.512,-0.895
34.516,-0.840
34.520,-0.650
34.524,-0.445
34.528,-0.315
34.532,-0.245
34.536,-0.230
34.540,-0.210
34.544,-0.200
34.548,-0.235
34.552,-0.275
34.556,-0.250
34.560,-0.200
34.564,-0.215
34.568,-0.225
34.572,-0.225
34.576,-0.250
34.580,-0.295
34.584,-0.280
34.588,-0.265
34.592,-0.285
34.596,-0.285
34.600,-0.260
34.604,-0.180
34.608,-0.160
34.612,-0.215
34.616,-0.225
34.620,-0.210
34.624,-0.155
34.628,-0.120
34.632,-0.145
34.636,-0.170
34.640,-0.185
34.644,-0.195
34.648,-0.170
34.652,-0.160
34.656,-0.125
34.660,-0.120
34.664,-0.095
34.668,-0.100
34.672,-0.065
34.676,-0.025
34.680,-0.025
34.684,-0.050
34.688,-0.080
34.692,-0.055
34.696,-0.030
34.700,-0.030
34.704,0.000
34.708,0.010
34.712,0.065
34.716,0.115
34.720,0.150
34.724,0.110
34.728,0.060
34.732,0.060
34.736,0.090
34.740,0.080
34.744,0.100
34.748,0.100
34.752,0.085
34.756,0.060
34.760,0.020
34.764,0.010
34.768,0.025
34.772,0.055
34.776,0.070
34.780,0.015
34.784,-0.030
34.788,-0.035
34.792,-0.035
34.796,-0.090
34.800,-0.095
34.804,-0.105
34.808,-0.110
34.812,-0.150
34.816,-0.180
34.820,-0.180
34.824,-0.180
34.828,-0.185
34.832,-0.170
34.836,-0.180
34.840,-0.225
34.844,-0.195
34.848,-0.210
34.852,-0.255
34.856,-0.270
34.860,-0.250
34.864,-0.260
34.868,-0.255
34.872,-0.240
34.876,-0.210
34.880,-0.270
34.884,-0.300
34.888,-0.300
34.892,-0.295
34.896,-0.280
34.900,-0.250
34.904,-0.285
34.908,-0.320
34.912,-0.310
34.916,-0.310
34.920,-0.275
34.924,-0.240
34.928,-0.225
34.932,-0.215
34.936,-0.235
34.940,-0.205
34.944,-0.165
34.948,-0.140
34.952,-0.130
34.956,-0.190
34.960,-0.220
34.964,-0.220
34.968,-0.190
34.972,-0.170
34.976,-0.195
34.980,-0.195
34.984,-0.210
34.988,-0.205
34.992,-0.190
34.996,-0.185
35.000,-0.200
35.004,-0.220
35.008,-0.225
35.012,-0.185
35.016,-0.200
35.020,-0.195
35.024,-0.225
35.028,-0.220
35.032,-0.220
35.036,-0.230
35.040,-0.245
35.044,-0.290
35.048,-0.290
35.052,-0.300
35.056,-0.275
35.060,-0.250
35.064,-0.260
35.068,-0.255
35.072,-0.280
35.076,-0.280
35.080,-0.285
35.084,-0.295
35.088,-0.295
35.092,-0.255
35.096,-0.215
35.100,-0.210
35.104,-0.200
35.108,-0.195
35.112,-0.185
35.116,-0.185
35.120,-0.235
35.124,-0.220
35.128,-0.215
35.132,-0.180
35.136,-0.175
35.140,-0.200
35.144,-0.230
35.148,-0.305
35.152,-0.340
35.156,-0.335
35.160,-0.330
35.164,-0.215
35.168,0.020
35.172,0.330
35.176,0.665
35.180,0.940
35.184,0.980
35.188,0.590
35.192,-0.015
35.196,-0.585
35.200,-0.870
35.204,-0.895
35.208,-0.735
35.212,-0.550
35.216,-0.385
35.220,-0.320
35.224,-0.285
35.228,-0.265
35.232,-0.275
35.236,-0.250
35.240,-0.295
35.244,-0.275
35.248,-0.260
35.252,-0.240
35.256,-0.185
35.260,-0.190
35.264,-0.215
35.268,-0.235
