'Elapsed time','ECG2'
'seconds','mV'
0.000,-0.160
0.004,-0.160
0.008,-0.140
0.012,-0.140
0.016,-0.150
0.020,-0.135
0.024,-0.110
0.028,-0.110
0.032,-0.135
0.036,-0.120
0.040,-0.100
0.044,-0.115
0.048,-0.115
0.052,-0.130
0.056,-0.115
0.060,-0.105
0.064,-0.120
0.068,-0.125
0.072,-0.120
0.076,-0.115
0.080,-0.120
0.084,-0.150
0.088,-0.145
0.092,-0.150
0.096,-0.170
0.100,-0.150
0.104,-0.155
0.108,-0.165
0.112,-0.155
0.116,-0.165
0.120,-0.170
0.124,-0.170
0.128,-0.195
0.132,-0.175
0.136,-0.200
0.140,-0.180
0.144,-0.170
0.148,-0.165
0.152,-0.185
0.156,-0.200
0.160,-0.200
0.164,-0.200
0.168,-0.200
0.172,-0.195
0.176,-0.195
0.180,-0.180
0.184,-0.200
0.188,-0.200
0.192,-0.185
0.196,-0.200
0.200,-0.205
0.204,-0.200
0.208,-0.215
0.212,-0.185
0.216,-0.200
0.220,-0.230
0.224,-0.205
0.228,-0.200
0.232,-0.185
0.236,-0.185
0.240,-0.180
0.244,-0.175
0.248,-0.130
0.252,-0.100
0.256,-0.070
0.260,-0.075
0.264,-0.075
0.268,-0.070
0.272,-0.045
0.276,-0.040
0.280,-0.040
0.284,-0.085
0.288,-0.130
0.292,-0.150
0.296,-0.150
0.300,-0.210
0.304,-0.205
0.308,-0.225
0.312,-0.210
0.316,-0.220
0.320,-0.215
0.324,-0.225
0.328,-0.240
0.332,-0.230
0.336,-0.225
0.340,-0.240
0.344,-0.265
0.348,-0.255
0.352,-0.220
0.356,-0.210
0.360,-0.250
0.364,-0.250
0.368,-0.255
0.372,-0.240
0.376,-0.255
0.380,-0.255
0.384,-0.250
0.388,-0.230
0.392,-0.250
0.396,-0.240
0.400,-0.260
0.404,-0.310
0.408,-0.375
0.412,-0.335
0.416,-0.205
0.420,0.090
0.424,0.600
0.428,1.100
0.432,1.415
0.436,1.320
0.440,0.740
0.444,0.185
0.448,-0.090
0.452,-0.330
0.456,-0.700
0.460,-0.905
0.464,-0.830
0.468,-0.640
0.472,-0.440
0.476,-0.295
0.480,-0.260
0.484,-0.260
0.488,-0.250
0.492,-0.260
0.496,-0.275
0.500,-0.255
0.504,-0.240
0.508,-0.235
0.512,-0.240
0.516,-0.230
0.520,-0.245
0.524,-0.230
0.528,-0.240
0.532,-0.245
0.536,-0.255
0.540,-0.230
0.544,-0.235
0.548,-0.215
0.552,-0.215
0.556,-0.225
0.560,-0.245
0.564,-0.230
0.568,-0.225
0.572,-0.230
0.576,-0.230
0.580,-0.200
0.584,-0.210
0.588,-0.200
0.592,-0.185
0.596,-0.185
0.600,-0.190
0.604,-0.175
0.608,-0.180
0.612,-0.170
0.616,-0.185
0.620,-0.160
0.624,-0.150
0.628,-0.140
0.632,-0.150
0.636,-0.135
0.640,-0.110
0.644,-0.105
0.648,-0.145
0.652,-0.120
0.656,-0.100
0.660,-0.090
0.664,-0.070
0.668,-0.050
0.672,-0.045
0.676,-0.030
0.680,-0.040
0.684,-0.035
0.688,-0.020
0.692,-0.020
0.696,-0.015
0.700,-0.010
0.704,-0.010
0.708,-0.015
0.712,-0.020
0.716,-0.005
0.720,-0.005
0.724,-0.020
0.728,-0.015
0.732,0.005
0.736,0.000
0.740,-0.005
0.744,0.015
0.748,0.015
0.752,0.000
0.756,0.005
0.760,-0.010
0.764,-0.025
0.768,-0.040
0.772,-0.065
0.776,-0.070
0.780,-0.085
0.784,-0.100
0.788,-0.115
0.792,-0.110
0.796,-0.125
0.800,-0.120
0.804,-0.120
0.808,-0.140
0.812,-0.145
0.816,-0.160
0.820,-0.150
0.824,-0.150
0.828,-0.160
0.832,-0.130
0.836,-0.125
0.840,-0.130
0.844,-0.125
0.848,-0.120
0.852,-0.140
0.856,-0.120
0.860,-0.115
0.864,-0.120
0.868,-0.135
0.872,-0.130
0.876,-0.110
0.880,-0.115
0.884,-0.090
0.888,-0.105
0.892,-0.120
0.896,-0.095
0.900,-0.095
0.904,-0.105
0.908,-0.100
0.912,-0.100
0.916,-0.100
0.920,-0.100
0.924,-0.100
0.928,-0.115
0.932,-0.115
0.936,-0.110
0.940,-0.145
0.944,-0.140
0.948,-0.115
0.952,-0.125
0.956,-0.130
0.960,-0.120
0.964,-0.130
0.968,-0.150
0.972,-0.135
0.976,-0.150
0.980,-0.160
0.984,-0.160
0.988,-0.160
0.992,-0.150
0.996,-0.150
1.000,-0.170
1.004,-0.155
1.008,-0.135
1.012,-0.140
1.016,-0.150
1.020,-0.155
1.024,-0.145
1.028,-0.155
1.032,-0.165
1.036,-0.150
1.040,-0.175
1.044,-0.165
1.048,-0.175
1.052,-0.180
1.056,-0.175
1.060,-0.145
1.064,-0.150
1.068,-0.170
1.072,-0.185
1.076,-0.170
1.080,-0.180
1.084,-0.170
1.088,-0.170
1.092,-0.170
1.096,-0.165
1.100,-0.170
1.104,-0.170
1.108,-0.165
1.112,-0.165
1.116,-0.160
1.120,-0.185
1.124,-0.175
1.128,-0.175
1.132,-0.185
1.136,-0.165
1.140,-0.175
1.144,-0.175
1.148,-0.155
1.152,-0.150
1.156,-0.180
1.160,-0.170
1.164,-0.195
1.168,-0.180
1.172,-0.180
1.176,-0.170
1.180,-0.180
1.184,-0.175
1.188,-0.160
1.192,-0.155
1.196,-0.160
1.200,-0.155
1.204,-0.180
1.208,-0.175
1.212,-0.160
1.216,-0.160
1.220,-0.150
1.224,-0.145
1.228,-0.160
1.232,-0.160
1.236,-0.155
1.240,-0.155
1.244,-0.180
1.248,-0.175
1.252,-0.140
1.256,-0.125
1.260,-0.110
1.264,-0.065
1.268,-0.045
1.272,-0.045
1.276,-0.070
1.280,-0.055
1.284,-0.035
1.288,-0.030
1.292,-0.070
1.296,-0.075
1.300,-0.100
1.304,-0.130
1.308,-0.155
1.312,-0.165
1.316,-0.180
1.320,-0.200
1.324,-0.200
1.328,-0.165
1.332,-0.180
1.336,-0.180
1.340,-0.190
1.344,-0.205
1.348,-0.220
1.352,-0.210
1.356,-0.205
1.360,-0.225
1.364,-0.220
1.368,-0.190
1.372,-0.210
1.376,-0.200
1.380,-0.215
1.384,-0.210
1.388,-0.215
1.392,-0.220
1.396,-0.220
1.400,-0.255
1.404,-0.320
1.408,-0.355
1.412,-0.285
1.416,-0.050
1.420,0.455
1.424,1.065
1.428,1.510
1.432,1.325
1.436,0.745
1.440,0.230
1.444,-0.085
1.448,-0.285
1.452,-0.520
1.456,-0.830
1.460,-0.870
1.464,-0.725
1.468,-0.535
1.472,-0.365
1.476,-0.270
1.480,-0.270
1.484,-0.275
1.488,-0.260
1.492,-0.260
1.496,-0.260
1.500,-0.250
1.504,-0.260
1.508,-0.255
1.512,-0.240
1.516,-0.240
1.520,-0.245
1.524,-0.250
1.528,-0.265
1.532,-0.260
1.536,-0.265
1.540,-0.250
1.544,-0.240
1.548,-0.230
1.552,-0.235
1.556,-0.215
1.560,-0.235
1.564,-0.230
1.568,-0.240
1.572,-0.240
1.576,-0.230
1.580,-0.220
1.584,-0.205
1.588,-0.190
1.592,-0.205
1.596,-0.185
1.600,-0.200
1.604,-0.205
1.608,-0.190
1.612,-0.175
1.616,-0.160
1.620,-0.170
1.624,-0.165
1.628,-0.160
1.632,-0.145
1.636,-0.130
1.640,-0.125
1.644,-0.100
1.648,-0.090
1.652,-0.095
1.656,-0.090
1.660,-0.085
1.664,-0.080
1.668,-0.070
1.672,-0.050
1.676,-0.020
1.680,-0.050
1.684,-0.030
1.688,-0.035
1.692,-0.010
1.696,-0.020
1.700,-0.030
1.704,0.005
1.708,-0.005
1.712,0.000
1.716,-0.025
1.720,0.005
1.724,0.020
1.728,0.010
1.732,0.000
1.736,0.000
1.740,-0.005
1.744,0.000
1.748,0.000
1.752,-0.005
1.756,-0.020
1.760,-0.030
1.764,-0.010
1.768,-0.030
1.772,-0.045
1.776,-0.055
1.780,-0.065
1.784,-0.075
1.788,-0.100
1.792,-0.110
1.796,-0.120
1.800,-0.125
1.804,-0.130
1.808,-0.135
1.812,-0.140
1.816,-0.130
1.820,-0.135
1.824,-0.140
1.828,-0.160
1.832,-0.160
1.836,-0.165
1.840,-0.160
1.844,-0.155
1.848,-0.155
1.852,-0.135
1.856,-0.135
1.860,-0.110
1.864,-0.120
1.868,-0.135
1.872,-0.145
1.876,-0.135
1.880,-0.115
1.884,-0.110
1.888,-0.100
1.892,-0.090
1.896,-0.110
1.900,-0.090
1.904,-0.100
1.908,-0.125
1.912,-0.115
1.916,-0.110
1.920,-0.135
1.924,-0.110
1.928,-0.115
1.932,-0.120
1.936,-0.150
1.940,-0.135
1.944,-0.155
1.948,-0.155
1.952,-0.140
1.956,-0.145
1.960,-0.150
1.964,-0.145
1.968,-0.160
1.972,-0.165
1.976,-0.160
1.980,-0.165
1.984,-0.160
1.988,-0.170
1.992,-0.170
1.996,-0.165
2.000,-0.160
2.004,-0.165
2.008,-0.190
2.012,-0.170
2.016,-0.165
2.020,-0.175
2.024,-0.165
2.028,-0.170
2.032,-0.190
2.036,-0.185
2.040,-0.180
2.044,-0.170
2.048,-0.180
2.052,-0.175
2.056,-0.180
2.060,-0.200
2.064,-0.185
2.068,-0.185
2.072,-0.195
2.076,-0.195
2.080,-0.185
2.084,-0.185
2.088,-0.155
2.092,-0.110
2.096,-0.095
2.100,-0.060
2.104,-0.055
2.108,-0.040
2.112,-0.060
2.116,-0.045
2.120,-0.040
2.124,-0.060
2.128,-0.100
2.132,-0.130
2.136,-0.180
2.140,-0.205
2.144,-0.220
2.148,-0.235
2.152,-0.220
2.156,-0.205
2.160,-0.205
2.164,-0.215
2.168,-0.230
2.172,-0.235
2.176,-0.255
2.180,-0.265
2.184,-0.260
2.188,-0.250
2.192,-0.255
2.196,-0.255
2.200,-0.260
2.204,-0.270
2.208,-0.260
2.212,-0.265
2.216,-0.270
2.220,-0.270
2.224,-0.255
2.228,-0.270
2.232,-0.250
2.236,-0.255
2.240,-0.280
2.244,-0.300
2.248,-0.340
2.252,-0.380
2.256,-0.370
2.260,-0.285
2.264,-0.005
2.268,0.490
2.272,0.980
2.276,1.165
2.280,0.750
2.284,0.180
2.288,-0.100
2.292,-0.215
2.296,-0.390
2.300,-0.700
2.304,-0.955
2.308,-0.930
2.312,-0.730
2.316,-0.505
2.320,-0.365
2.324,-0.305
2.328,-0.295
2.332,-0.280
2.336,-0.290
2.340,-0.290
2.344,-0.285
2.348,-0.290
2.352,-0.300
2.356,-0.285
2.360,-0.270
2.364,-0.300
2.368,-0.295
2.372,-0.265
2.376,-0.290
2.380,-0.280
2.384,-0.285
2.388,-0.285
2.392,-0.290
2.396,-0.290
2.400,-0.270
2.404,-0.280
2.408,-0.275
2.412,-0.265
2.416,-0.270
2.420,-0.260
2.424,-0.270
2.428,-0.260
2.432,-0.265
2.436,-0.240
2.440,-0.240
2.444,-0.220
2.448,-0.225
2.452,-0.235
2.456,-0.240
2.460,-0.225
2.464,-0.230
2.468,-0.220
2.472,-0.205
2.476,-0.210
2.480,-0.190
2.484,-0.160
2.488,-0.180
2.492,-0.165
2.496,-0.150
2.500,-0.155
2.504,-0.135
2.508,-0.140
2.512,-0.120
2.516,-0.100
2.520,-0.110
2.524,-0.095
2.528,-0.105
2.532,-0.100
2.536,-0.080
2.540,-0.100
2.544,-0.075
2.548,-0.065
2.552,-0.050
2.556,-0.070
2.560,-0.050
2.564,-0.070
2.568,-0.075
2.572,-0.055
2.576,-0.050
2.580,-0.040
2.584,-0.035
2.588,-0.040
2.592,-0.070
2.596,-0.070
2.600,-0.060
2.604,-0.085
2.608,-0.085
2.612,-0.110
2.616,-0.115
2.620,-0.115
2.624,-0.130
2.628,-0.155
2.632,-0.145
2.636,-0.150
2.640,-0.160
2.644,-0.170
2.648,-0.195
2.652,-0.180
2.656,-0.200
2.660,-0.195
2.664,-0.180
2.668,-0.185
2.672,-0.185
2.676,-0.170
2.680,-0.175
2.684,-0.185
2.688,-0.165
2.692,-0.140
2.696,-0.135
2.700,-0.150
2.704,-0.155
2.708,-0.155
2.712,-0.140
2.716,-0.145
2.720,-0.135
2.724,-0.150
2.728,-0.140
2.732,-0.140
2.736,-0.125
2.740,-0.140
2.744,-0.125
2.748,-0.140
2.752,-0.130
2.756,-0.135
2.760,-0.140
2.764,-0.150
2.768,-0.140
2.772,-0.170
2.776,-0.160
2.780,-0.160
2.784,-0.160
2.788,-0.145
2.792,-0.145
2.796,-0.170
2.800,-0.185
2.804,-0.195
2.808,-0.180
2.812,-0.195
2.816,-0.185
2.820,-0.180
2.824,-0.170
2.828,-0.180
2.832,-0.175
2.836,-0.190
2.840,-0.175
2.844,-0.160
2.848,-0.175
2.852,-0.195
2.856,-0.175
2.860,-0.190
2.864,-0.180
2.868,-0.200
2.872,-0.190
2.876,-0.185
2.880,-0.185
2.884,-0.180
2.888,-0.195
2.892,-0.165
2.896,-0.195
2.900,-0.185
2.904,-0.190
2.908,-0.200
2.912,-0.180
2.916,-0.175
2.920,-0.195
2.924,-0.175
2.928,-0.175
2.932,-0.185
2.936,-0.190
2.940,-0.165
2.944,-0.170
2.948,-0.165
2.952,-0.185
2.956,-0.195
2.960,-0.195
2.964,-0.185
2.968,-0.180
2.972,-0.185
2.976,-0.200
2.980,-0.180
2.984,-0.200
2.988,-0.205
2.992,-0.195
2.996,-0.185
3.000,-0.190
3.004,-0.215
3.008,-0.190
3.012,-0.160
3.016,-0.150
3.020,-0.195
3.024,-0.195
3.028,-0.190
3.032,-0.195
3.036,-0.205
3.040,-0.190
3.044,-0.180
3.048,-0.185
3.052,-0.180
3.056,-0.200
3.060,-0.200
3.064,-0.200
3.068,-0.210
3.072,-0.210
3.076,-0.195
3.080,-0.195
3.084,-0.190
3.088,-0.170
3.092,-0.150
3.096,-0.120
3.100,-0.080
3.104,-0.075
3.108,-0.055
3.112,-0.075
3.116,-0.065
3.120,-0.060
3.124,-0.045
3.128,-0.055
3.132,-0.110
3.136,-0.110
3.140,-0.130
3.144,-0.190
3.148,-0.200
3.152,-0.195
3.156,-0.220
3.160,-0.240
3.164,-0.220
3.168,-0.195
3.172,-0.225
3.176,-0.225
3.180,-0.235
3.184,-0.235
3.188,-0.240
3.192,-0.245
3.196,-0.240
3.200,-0.235
3.204,-0.240
3.208,-0.245
3.212,-0.245
3.216,-0.255
3.220,-0.280
3.224,-0.285
3.228,-0.265
3.232,-0.250
3.236,-0.265
3.240,-0.265
3.244,-0.250
3.248,-0.305
3.252,-0.345
3.256,-0.360
3.260,-0.275
3.264,-0.025
3.268,0.440
3.272,0.975
3.276,1.215
3.280,0.825
3.284,0.235
3.288,-0.065
3.292,-0.185
3.296,-0.350
3.300,-0.655
3.304,-0.920
3.308,-0.915
3.312,-0.765
3.316,-0.515
3.320,-0.340
3.324,-0.285
3.328,-0.275
3.332,-0.270
3.336,-0.270
3.340,-0.270
3.344,-0.245
3.348,-0.250
3.352,-0.250
3.356,-0.250
3.360,-0.255
3.364,-0.245
3.368,-0.260
3.372,-0.250
3.376,-0.255
3.380,-0.260
3.384,-0.260
3.388,-0.260
3.392,-0.265
3.396,-0.260
3.400,-0.255
3.404,-0.255
3.408,-0.250
3.412,-0.220
3.416,-0.250
3.420,-0.230
3.424,-0.235
3.428,-0.235
3.432,-0.235
3.436,-0.220
3.440,-0.200
3.444,-0.195
3.448,-0.210
3.452,-0.215
3.456,-0.205
3.460,-0.185
3.464,-0.185
3.468,-0.180
3.472,-0.160
3.476,-0.150
3.480,-0.150
3.484,-0.130
3.488,-0.125
3.492,-0.120
3.496,-0.115
3.500,-0.090
3.504,-0.095
3.508,-0.080
3.512,-0.075
3.516,-0.075
3.520,-0.050
3.524,-0.035
3.528,-0.035
3.532,-0.025
3.536,-0.015
3.540,-0.025
3.544,-0.010
3.548,-0.020
3.552,-0.020
3.556,-0.005
3.560,0.015
3.564,0.015
3.568,-0.005
3.572,0.020
3.576,0.035
3.580,0.005
3.584,0.030
3.588,0.045
3.592,0.035
3.596,0.025
3.600,0.020
3.604,0.025
3.608,0.000
3.612,0.000
3.616,-0.025
3.620,-0.010
3.624,-0.030
3.628,-0.035
3.632,-0.065
3.636,-0.095
3.640,-0.115
3.644,-0.105
3.648,-0.120
3.652,-0.120
3.656,-0.115
3.660,-0.125
3.664,-0.110
3.668,-0.090
3.672,-0.115
3.676,-0.110
3.680,-0.130
3.684,-0.130
3.688,-0.135
3.692,-0.115
3.696,-0.100
3.700,-0.095
3.704,-0.105
3.708,-0.110
3.712,-0.100
3.716,-0.105
3.720,-0.090
3.724,-0.080
3.728,-0.075
3.732,-0.095
3.736,-0.080
3.740,-0.055
3.744,-0.080
3.748,-0.075
3.752,-0.075
3.756,-0.080
3.760,-0.085
3.764,-0.090
3.768,-0.085
3.772,-0.110
3.776,-0.095
3.780,-0.095
3.784,-0.105
3.788,-0.110
3.792,-0.105
3.796,-0.085
3.800,-0.105
3.804,-0.080
3.808,-0.105
3.812,-0.130
3.816,-0.145
3.820,-0.145
3.824,-0.125
3.828,-0.115
3.832,-0.135
3.836,-0.145
3.840,-0.140
3.844,-0.135
3.848,-0.135
3.852,-0.120
3.856,-0.130
3.860,-0.145
3.864,-0.150
3.868,-0.135
3.872,-0.160
3.876,-0.140
3.880,-0.135
3.884,-0.125
3.888,-0.115
3.892,-0.105
3.896,-0.070
3.900,-0.050
3.904,-0.020
3.908,0.010
3.912,-0.015
3.916,-0.005
3.920,-0.005
3.924,-0.015
3.928,0.000
3.932,-0.040
3.936,-0.055
3.940,-0.075
3.944,-0.065
3.948,-0.120
3.952,-0.145
3.956,-0.145
3.960,-0.160
3.964,-0.155
3.968,-0.145
3.972,-0.165
3.976,-0.175
3.980,-0.190
3.984,-0.195
3.988,-0.195
3.992,-0.205
3.996,-0.200
4.000,-0.205
4.004,-0.205
4.008,-0.210
4.012,-0.240
4.016,-0.185
4.020,-0.180
4.024,-0.185
4.028,-0.180
4.032,-0.180
4.036,-0.200
4.040,-0.190
4.044,-0.195
4.048,-0.220
4.052,-0.240
4.056,-0.300
4.060,-0.360
4.064,-0.300
4.068,-0.145
4.072,0.240
4.076,0.835
4.080,1.450
4.084,1.760
4.088,1.510
4.092,0.865
4.096,0.240
4.100,-0.110
4.104,-0.355
4.108,-0.700
4.112,-0.870
4.116,-0.790
4.120,-0.620
4.124,-0.420
4.128,-0.290
4.132,-0.225
4.136,-0.210
4.140,-0.235
4.144,-0.230
4.148,-0.250
4.152,-0.240
4.156,-0.235
4.160,-0.215
4.164,-0.240
4.168,-0.240
4.172,-0.245
4.176,-0.235
4.180,-0.230
4.184,-0.220
4.188,-0.220
4.192,-0.235
4.196,-0.220
4.200,-0.210
4.204,-0.220
4.208,-0.240
4.212,-0.220
4.216,-0.210
4.220,-0.220
4.224,-0.205
4.228,-0.190
4.232,-0.205
4.236,-0.205
4.240,-0.195
4.244,-0.195
4.248,-0.205
4.252,-0.215
4.256,-0.205
4.260,-0.165
4.264,-0.160
4.268,-0.180
4.272,-0.160
4.276,-0.155
4.280,-0.140
4.284,-0.135
4.288,-0.120
4.292,-0.120
4.296,-0.100
4.300,-0.080
4.304,-0.045
4.308,-0.055
4.312,-0.065
4.316,-0.060
4.320,-0.035
4.324,-0.030
4.328,-0.025
4.332,-0.030
4.336,-0.015
4.340,-0.040
4.344,-0.035
4.348,-0.010
4.352,-0.035
4.356,-0.025
4.360,0.000
4.364,-0.020
4.368,0.000
4.372,-0.005
4.376,-0.005
4.380,-0.020
4.384,-0.005
4.388,-0.005
4.392,-0.015
4.396,-0.035
4.400,-0.015
4.404,-0.020
4.408,-0.040
4.412,-0.070
4.416,-0.070
4.420,-0.070
4.424,-0.075
4.428,-0.100
4.432,-0.110
4.436,-0.110
4.440,-0.120
4.444,-0.140
4.448,-0.140
4.452,-0.155
4.456,-0.170
4.460,-0.155
4.464,-0.160
4.468,-0.170
4.472,-0.185
4.476,-0.180
4.480,-0.180
4.484,-0.175
4.488,-0.150
4.492,-0.155
4.496,-0.145
4.500,-0.150
4.504,-0.135
4.508,-0.160
4.512,-0.160
4.516,-0.145
4.520,-0.150
4.524,-0.130
4.528,-0.135
4.532,-0.125
4.536,-0.125
4.540,-0.125
4.544,-0.125
4.548,-0.130
4.552,-0.095
4.556,-0.080
4.560,-0.125
4.564,-0.125
4.568,-0.140
4.572,-0.120
4.576,-0.115
4.580,-0.120
4.584,-0.100
4.588,-0.130
4.592,-0.135
4.596,-0.120
4.600,-0.120
4.604,-0.110
4.608,-0.155
4.612,-0.160
4.616,-0.150
4.620,-0.150
4.624,-0.160
4.628,-0.140
4.632,-0.150
4.636,-0.155
4.640,-0.170
4.644,-0.160
4.648,-0.145
4.652,-0.155
4.656,-0.155
4.660,-0.140
4.664,-0.155
4.668,-0.155
4.672,-0.155
4.676,-0.160
4.680,-0.175
4.684,-0.160
4.688,-0.145
4.692,-0.140
4.696,-0.165
4.700,-0.140
4.704,-0.160
4.708,-0.145
4.712,-0.150
4.716,-0.165
4.720,-0.140
4.724,-0.135
4.728,-0.170
4.732,-0.165
4.736,-0.165
4.740,-0.140
4.744,-0.165
4.748,-0.150
4.752,-0.155
4.756,-0.165
4.760,-0.170
4.764,-0.170
4.768,-0.170
4.772,-0.160
4.776,-0.170
4.780,-0.155
4.784,-0.160
4.788,-0.160
4.792,-0.165
4.796,-0.155
4.800,-0.155
4.804,-0.160
4.808,-0.155
4.812,-0.160
4.816,-0.160
4.820,-0.160
4.824,-0.165
4.828,-0.175
4.832,-0.175
4.836,-0.140
4.840,-0.140
4.844,-0.165
4.848,-0.155
4.852,-0.170
4.856,-0.190
4.860,-0.180
4.864,-0.160
4.868,-0.165
4.872,-0.185
4.876,-0.175
4.880,-0.160
4.884,-0.130
4.888,-0.130
4.892,-0.090
4.896,-0.050
4.900,-0.045
4.904,-0.045
4.908,-0.045
4.912,-0.025
4.916,-0.035
4.920,-0.020
4.924,0.000
4.928,-0.030
4.932,-0.055
4.936,-0.090
4.940,-0.130
4.944,-0.140
4.948,-0.190
4.952,-0.210
4.956,-0.185
4.960,-0.160
4.964,-0.180
4.968,-0.190
4.972,-0.200
4.976,-0.210
4.980,-0.210
4.984,-0.215
4.988,-0.225
4.992,-0.200
4.996,-0.205
5.000,-0.185
5.004,-0.200
5.008,-0.210
5.012,-0.200
5.016,-0.200
5.020,-0.200
5.024,-0.220
5.028,-0.210
5.032,-0.210
5.036,-0.235
5.040,-0.280
5.044,-0.335
5.048,-0.375
5.052,-0.365
5.056,-0.270
5.060,-0.060
5.064,0.335
5.068,0.925
5.072,1.275
5.076,0.975
5.080,0.345
5.084,-0.040
5.088,-0.275
5.092,-0.650
5.096,-0.910
5.100,-0.880
5.104,-0.700
5.108,-0.475
5.112,-0.310
5.116,-0.250
5.120,-0.230
5.124,-0.260
5.128,-0.250
5.132,-0.245
5.136,-0.260
5.140,-0.260
5.144,-0.265
5.148,-0.255
5.152,-0.250
5.156,-0.255
5.160,-0.260
5.164,-0.260
5.168,-0.245
5.172,-0.260
5.176,-0.265
5.180,-0.250
5.184,-0.265
5.188,-0.275
5.192,-0.260
5.196,-0.250
5.200,-0.245
5.204,-0.230
5.208,-0.230
5.212,-0.225
5.216,-0.260
5.220,-0.240
5.224,-0.245
5.228,-0.225
5.232,-0.210
5.236,-0.220
5.240,-0.220
5.244,-0.200
5.248,-0.215
5.252,-0.210
5.256,-0.195
5.260,-0.175
5.264,-0.195
5.268,-0.195
5.272,-0.190
5.276,-0.175
5.280,-0.140
5.284,-0.140
5.288,-0.115
5.292,-0.135
5.296,-0.145
5.300,-0.110
5.304,-0.080
5.308,-0.070
5.312,-0.060
5.316,-0.050
5.320,-0.060
5.324,-0.040
5.328,-0.040
5.332,-0.055
5.336,-0.055
5.340,-0.035
5.344,-0.045
5.348,-0.020
5.352,-0.035
5.356,-0.040
5.360,-0.025
5.364,-0.010
5.368,-0.025
5.372,-0.045
5.376,0.000
5.380,0.000
5.384,-0.005
5.388,-0.010
5.392,-0.010
5.396,-0.025
5.400,-0.020
5.404,-0.020
5.408,-0.040
5.412,-0.045
5.416,-0.055
5.420,-0.070
5.424,-0.080
5.428,-0.100
5.432,-0.095
5.436,-0.140
5.440,-0.140
5.444,-0.125
5.448,-0.140
5.452,-0.150
5.456,-0.150
5.460,-0.160
5.464,-0.135
5.468,-0.150
5.472,-0.145
5.476,-0.145
5.480,-0.155
5.484,-0.145
5.488,-0.135
5.492,-0.130
5.496,-0.115
5.500,-0.115
5.504,-0.110
5.508,-0.135
5.512,-0.105
5.516,-0.105
5.520,-0.095
5.524,-0.110
5.528,-0.100
5.532,-0.105
5.536,-0.110
5.540,-0.070
5.544,-0.100
5.548,-0.120
5.552,-0.100
5.556,-0.105
5.560,-0.105
5.564,-0.125
5.568,-0.125
5.572,-0.130
5.576,-0.125
5.580,-0.120
5.584,-0.130
5.588,-0.110
5.592,-0.130
5.596,-0.155
5.600,-0.150
5.604,-0.140
5.608,-0.140
5.612,-0.140
5.616,-0.135
5.620,-0.130
5.624,-0.145
5.628,-0.155
5.632,-0.150
5.636,-0.155
5.640,-0.165
5.644,-0.165
5.648,-0.165
5.652,-0.180
5.656,-0.160
5.660,-0.160
5.664,-0.155
5.668,-0.160
5.672,-0.170
5.676,-0.145
5.680,-0.145
5.684,-0.155
5.688,-0.175
5.692,-0.135
5.696,-0.105
5.700,-0.080
5.704,-0.045
5.708,-0.020
5.712,-0.010
5.716,-0.030
5.720,-0.040
5.724,-0.045
5.728,-0.030
5.732,-0.005
5.736,-0.020
5.740,-0.055
5.744,-0.075
5.748,-0.135
5.752,-0.160
5.756,-0.190
5.760,-0.160
5.764,-0.170
5.768,-0.160
5.772,-0.180
5.776,-0.200
5.780,-0.185
5.784,-0.200
5.788,-0.200
5.792,-0.215
5.796,-0.210
5.800,-0.215
5.804,-0.240
5.808,-0.210
5.812,-0.210
5.816,-0.215
5.820,-0.200
5.824,-0.210
5.828,-0.225
5.832,-0.230
5.836,-0.220
5.840,-0.195
5.844,-0.215
5.848,-0.220
5.852,-0.215
5.856,-0.230
5.860,-0.285
5.864,-0.335
5.868,-0.305
5.872,-0.205
5.876,0.100
5.880,0.620
5.884,1.075
5.888,1.115
5.892,0.580
5.896,0.110
5.900,-0.130
5.904,-0.370
5.908,-0.780
5.912,-0.985
5.916,-0.940
5.920,-0.800
5.924,-0.615
5.928,-0.420
5.932,-0.265
5.936,-0.230
5.940,-0.240
5.944,-0.230
5.948,-0.235
5.952,-0.230
5.956,-0.240
5.960,-0.215
5.964,-0.205
5.968,-0.230
5.972,-0.230
5.976,-0.220
5.980,-0.225
5.984,-0.220
5.988,-0.240
5.992,-0.225
5.996,-0.215
6.000,-0.210
6.004,-0.225
6.008,-0.220
6.012,-0.200
6.016,-0.235
6.020,-0.225
6.024,-0.215
6.028,-0.235
6.032,-0.215
6.036,-0.195
6.040,-0.180
6.044,-0.190
6.048,-0.185
6.052,-0.195
6.056,-0.185
6.060,-0.170
6.064,-0.195
6.068,-0.165
6.072,-0.160
6.076,-0.160
6.080,-0.160
6.084,-0.140
6.088,-0.130
6.092,-0.110
6.096,-0.105
6.100,-0.105
6.104,-0.105
6.108,-0.085
6.112,-0.070
6.116,-0.055
6.120,-0.070
6.124,-0.050
6.128,-0.050
6.132,-0.040
6.136,-0.020
6.140,-0.010
6.144,-0.020
6.148,-0.030
6.152,-0.015
6.156,-0.010
6.160,-0.015
6.164,0.010
6.168,0.030
6.172,0.005
6.176,-0.010
6.180,-0.015
6.184,0.000
6.188,0.020
6.192,0.000
6.196,0.000
6.200,-0.015
6.204,-0.005
6.208,-0.015
6.212,0.005
6.216,-0.010
6.220,-0.035
6.224,-0.050
6.228,-0.065
6.232,-0.070
6.236,-0.085
6.240,-0.100
6.244,-0.070
6.248,-0.105
6.252,-0.105
6.256,-0.125
6.260,-0.125
6.264,-0.155
6.268,-0.155
6.272,-0.145
6.276,-0.130
6.280,-0.145
6.284,-0.115
6.288,-0.120
6.292,-0.105
6.296,-0.115
6.300,-0.115
6.304,-0.115
6.308,-0.095
6.312,-0.120
6.316,-0.090
6.320,-0.080
6.324,-0.080
6.328,-0.075
6.332,-0.075
6.336,-0.110
6.340,-0.085
6.344,-0.100
6.348,-0.080
6.352,-0.080
6.356,-0.090
6.360,-0.100
6.364,-0.080
6.368,-0.100
6.372,-0.105
6.376,-0.120
6.380,-0.115
6.384,-0.105
6.388,-0.090
6.392,-0.095
6.396,-0.105
6.400,-0.105
6.404,-0.100
6.408,-0.105
6.412,-0.105
6.416,-0.115
6.420,-0.125
6.424,-0.140
6.428,-0.120
6.432,-0.135
6.436,-0.135
6.440,-0.120
6.444,-0.120
6.448,-0.105
6.452,-0.120
6.456,-0.115
6.460,-0.125
6.464,-0.105
6.468,-0.115
6.472,-0.115
6.476,-0.125
6.480,-0.115
6.484,-0.115
6.488,-0.110
6.492,-0.120
6.496,-0.150
6.500,-0.130
6.504,-0.110
6.508,-0.115
6.512,-0.125
6.516,-0.090
6.520,-0.105
6.524,-0.120
6.528,-0.120
6.532,-0.110
6.536,-0.125
6.540,-0.115
6.544,-0.125
6.548,-0.120
6.552,-0.100
6.556,-0.085
6.560,-0.105
6.564,-0.105
6.568,-0.090
6.572,-0.115
6.576,-0.115
6.580,-0.080
6.584,-0.110
6.588,-0.100
6.592,-0.110
6.596,-0.090
6.600,-0.105
6.604,-0.105
6.608,-0.105
6.612,-0.070
6.616,-0.085
6.620,-0.075
6.624,-0.095
6.628,-0.090
6.632,-0.080
6.636,-0.065
6.640,-0.095
6.644,-0.110
6.648,-0.115
6.652,-0.100
6.656,-0.080
6.660,-0.070
6.664,-0.080
6.668,-0.070
6.672,-0.070
6.676,-0.060
6.680,-0.075
6.684,-0.065
6.688,-0.040
6.692,-0.010
6.696,0.015
6.700,0.040
6.704,0.060
6.708,0.045
6.712,0.020
6.716,0.050
6.720,0.070
6.724,0.075
6.728,0.060
6.732,0.015
6.736,0.000
6.740,-0.005
6.744,-0.055
6.748,-0.075
6.752,-0.075
6.756,-0.105
6.760,-0.110
6.764,-0.090
6.768,-0.080
6.772,-0.085
6.776,-0.100
6.780,-0.120
6.784,-0.125
6.788,-0.130
6.792,-0.130
6.796,-0.135
6.800,-0.120
6.804,-0.145
6.808,-0.135
6.812,-0.140
6.816,-0.125
6.820,-0.140
6.824,-0.140
6.828,-0.145
6.832,-0.125
6.836,-0.130
6.840,-0.160
6.844,-0.175
6.848,-0.225
6.852,-0.280
6.856,-0.225
6.860,-0.045
6.864,0.380
6.868,1.000
6.872,1.450
6.876,1.295
6.880,0.625
6.884,0.115
6.888,-0.130
6.892,-0.420
6.896,-0.765
6.900,-0.900
6.904,-0.845
6.908,-0.720
6.912,-0.530
6.916,-0.325
6.920,-0.185
6.924,-0.170
6.928,-0.170
6.932,-0.170
6.936,-0.140
6.940,-0.175
6.944,-0.150
6.948,-0.150
6.952,-0.160
6.956,-0.170
6.960,-0.175
6.964,-0.175
6.968,-0.170
6.972,-0.150
6.976,-0.165
6.980,-0.160
6.984,-0.160
6.988,-0.150
6.992,-0.150
6.996,-0.135
7.000,-0.145
7.004,-0.155
7.008,-0.135
7.012,-0.130
7.016,-0.145
7.020,-0.145
7.024,-0.110
7.028,-0.110
7.032,-0.120
7.036,-0.110
7.040,-0.130
7.044,-0.130
7.048,-0.105
7.052,-0.095
7.056,-0.085
7.060,-0.080
7.064,-0.075
7.068,-0.085
7.072,-0.080
7.076,-0.095
7.080,-0.075
7.084,-0.035
7.088,-0.020
7.092,-0.020
7.096,-0.020
7.100,-0.005
7.104,0.005
7.108,-0.005
7.112,0.005
7.116,0.005
7.120,0.030
7.124,0.035
7.128,0.040
7.132,0.035
7.136,0.045
7.140,0.040
7.144,0.050
7.148,0.060
7.152,0.055
7.156,0.075
7.160,0.055
7.164,0.040
7.168,0.060
7.172,0.065
7.176,0.060
7.180,0.060
7.184,0.060
7.188,0.060
7.192,0.070
7.196,0.055
7.200,0.070
7.204,0.065
7.208,0.030
7.212,0.010
7.216,0.010
7.220,0.015
7.224,-0.005
7.228,-0.035
7.232,-0.040
7.236,-0.050
7.240,-0.050
7.244,-0.060
7.248,-0.055
7.252,-0.080
7.256,-0.090
7.260,-0.085
7.264,-0.095
7.268,-0.095
7.272,-0.080
7.276,-0.080
7.280,-0.090
7.284,-0.065
7.288,-0.070
7.292,-0.070
7.296,-0.060
7.300,-0.095
7.304,-0.065
7.308,-0.065
7.312,-0.050
7.316,-0.045
7.320,-0.035
7.324,-0.040
7.328,-0.045
7.332,-0.020
7.336,-0.020
7.340,-0.040
7.344,-0.030
7.348,-0.025
7.352,-0.025
7.356,-0.030
7.360,-0.075
7.364,-0.065
7.368,-0.055
7.372,-0.065
7.376,-0.075
7.380,-0.080
7.384,-0.070
7.388,-0.080
7.392,-0.075
7.396,-0.085
7.400,-0.095
7.404,-0.065
7.408,-0.090
7.412,-0.110
7.416,-0.120
7.420,-0.110
7.424,-0.115
7.428,-0.105
7.432,-0.115
7.436,-0.115
7.440,-0.120
7.444,-0.115
7.448,-0.125
7.452,-0.115
7.456,-0.120
7.460,-0.115
7.464,-0.120
7.468,-0.125
7.472,-0.115
7.476,-0.115
7.480,-0.100
7.484,-0.110
7.488,-0.125
7.492,-0.130
7.496,-0.110
7.500,-0.080
7.504,-0.050
7.508,-0.020
7.512,0.005
7.516,0.005
7.520,-0.005
7.524,0.005
7.528,0.010
7.532,0.010
7.536,-0.025
7.540,-0.045
7.544,-0.065
7.548,-0.080
7.552,-0.130
7.556,-0.165
7.560,-0.160
7.564,-0.170
7.568,-0.160
7.572,-0.155
7.576,-0.180
7.580,-0.190
7.584,-0.180
7.588,-0.190
7.592,-0.200
7.596,-0.180
7.600,-0.205
7.604,-0.215
7.608,-0.175
7.612,-0.180
7.616,-0.210
7.620,-0.190
7.624,-0.210
7.628,-0.205
7.632,-0.205
7.636,-0.190
7.640,-0.190
7.644,-0.210
7.648,-0.210
7.652,-0.230
7.656,-0.295
7.660,-0.340
7.664,-0.350
7.668,-0.290
7.672,-0.135
7.676,0.175
7.680,0.570
7.684,1.050
7.688,1.350
7.692,0.990
7.696,0.350
7.700,-0.020
7.704,-0.295
7.708,-0.660
7.712,-0.880
7.716,-0.820
7.720,-0.645
7.724,-0.420
7.728,-0.285
7.732,-0.215
7.736,-0.220
7.740,-0.205
7.744,-0.200
7.748,-0.220
7.752,-0.230
7.756,-0.240
7.760,-0.265
7.764,-0.245
7.768,-0.215
7.772,-0.245
7.776,-0.250
7.780,-0.235
7.784,-0.230
7.788,-0.235
7.792,-0.220
7.796,-0.225
7.800,-0.225
7.804,-0.235
7.808,-0.240
7.812,-0.220
7.816,-0.220
7.820,-0.230
7.824,-0.240
7.828,-0.225
7.832,-0.230
7.836,-0.225
7.840,-0.200
7.844,-0.200
7.848,-0.205
7.852,-0.220
7.856,-0.205
7.860,-0.205
7.864,-0.205
7.868,-0.210
7.872,-0.185
7.876,-0.165
7.880,-0.165
7.884,-0.155
7.888,-0.140
7.892,-0.145
7.896,-0.140
7.900,-0.140
7.904,-0.125
7.908,-0.125
7.912,-0.090
7.916,-0.095
7.920,-0.080
7.924,-0.080
7.928,-0.060
7.932,-0.065
7.936,-0.070
7.940,-0.070
7.944,-0.060
7.948,-0.055
7.952,-0.045
7.956,-0.060
7.960,-0.060
7.964,-0.040
7.968,-0.045
7.972,-0.045
7.976,-0.050
7.980,-0.050
7.984,-0.035
7.988,-0.040
7.992,-0.035
7.996,-0.040
8.000,-0.055
8.004,-0.035
8.008,-0.055
8.012,-0.075
8.016,-0.075
8.020,-0.085
8.024,-0.105
8.028,-0.115
8.032,-0.120
8.036,-0.120
8.040,-0.145
8.044,-0.160
8.048,-0.160
8.052,-0.160
8.056,-0.185
8.060,-0.175
8.064,-0.190
8.068,-0.190
8.072,-0.195
8.076,-0.185
8.080,-0.175
8.084,-0.195
8.088,-0.200
8.092,-0.195
8.096,-0.185
8.100,-0.165
8.104,-0.175
8.108,-0.170
8.112,-0.195
8.116,-0.175
8.120,-0.190
8.124,-0.195
8.128,-0.175
8.132,-0.165
8.136,-0.165
8.140,-0.155
8.144,-0.175
8.148,-0.185
8.152,-0.190
8.156,-0.175
8.160,-0.170
8.164,-0.195
8.168,-0.175
8.172,-0.190
8.176,-0.195
8.180,-0.190
8.184,-0.190
8.188,-0.195
8.192,-0.195
8.196,-0.205
8.200,-0.195
8.204,-0.190
8.208,-0.220
8.212,-0.225
8.216,-0.210
8.220,-0.240
8.224,-0.200
8.228,-0.210
8.232,-0.225
8.236,-0.225
8.240,-0.225
8.244,-0.250
8.248,-0.230
8.252,-0.230
8.256,-0.215
8.260,-0.225
8.264,-0.225
8.268,-0.235
8.272,-0.245
8.276,-0.230
8.280,-0.240
8.284,-0.245
8.288,-0.245
8.292,-0.235
8.296,-0.240
8.300,-0.240
8.304,-0.240
8.308,-0.235
8.312,-0.250
8.316,-0.265
8.320,-0.255
8.324,-0.260
8.328,-0.240
8.332,-0.255
8.336,-0.240
8.340,-0.235
8.344,-0.235
8.348,-0.250
8.352,-0.255
8.356,-0.260
8.360,-0.250
8.364,-0.235
8.368,-0.240
8.372,-0.250
8.376,-0.255
8.380,-0.250
8.384,-0.250
8.388,-0.255
8.392,-0.250
8.396,-0.255
8.400,-0.255
8.404,-0.265
8.408,-0.265
8.412,-0.250
8.416,-0.245
8.420,-0.230
8.424,-0.270
8.428,-0.265
8.432,-0.275
8.436,-0.265
8.440,-0.265
8.444,-0.275
8.448,-0.250
8.452,-0.240
8.456,-0.230
8.460,-0.260
8.464,-0.260
8.468,-0.265
8.472,-0.250
8.476,-0.260
8.480,-0.280
8.484,-0.255
8.488,-0.250
8.492,-0.275
8.496,-0.250
8.500,-0.250
8.504,-0.235
8.508,-0.200
8.512,-0.190
8.516,-0.190
8.520,-0.145
8.524,-0.135
8.528,-0.135
8.532,-0.135
8.536,-0.140
8.540,-0.150
8.544,-0.125
8.548,-0.130
8.552,-0.160
8.556,-0.175
8.560,-0.215
8.564,-0.270
8.568,-0.285
8.572,-0.295
8.576,-0.315
8.580,-0.295
8.584,-0.290
8.588,-0.280
8.592,-0.300
8.596,-0.290
8.600,-0.295
8.604,-0.330
8.608,-0.320
8.612,-0.310
8.616,-0.330
8.620,-0.320
8.624,-0.320
8.628,-0.350
8.632,-0.345
8.636,-0.340
8.640,-0.330
8.644,-0.320
8.648,-0.320
8.652,-0.330
8.656,-0.335
8.660,-0.340
8.664,-0.365
8.668,-0.395
8.672,-0.430
8.676,-0.435
8.680,-0.305
8.684,0.020
8.688,0.545
8.692,0.995
8.696,1.005
8.700,0.515
8.704,0.035
8.708,-0.195
8.712,-0.275
8.716,-0.485
8.720,-0.855
8.724,-1.060
8.728,-0.965
8.732,-0.750
8.736,-0.555
8.740,-0.405
8.744,-0.365
8.748,-0.360
8.752,-0.375
8.756,-0.370
8.760,-0.385
8.764,-0.385
8.768,-0.415
8.772,-0.400
8.776,-0.390
8.780,-0.380
8.784,-0.370
8.788,-0.375
8.792,-0.385
8.796,-0.395
8.800,-0.385
8.804,-0.370
8.808,-0.385
8.812,-0.385
8.816,-0.390
8.820,-0.380
8.824,-0.385
8.828,-0.385
8.832,-0.385
8.836,-0.365
8.840,-0.365
8.844,-0.370
8.848,-0.360
8.852,-0.360
8.856,-0.350
8.860,-0.335
8.864,-0.345
8.868,-0.350
8.872,-0.315
8.876,-0.305
8.880,-0.335
8.884,-0.300
8.888,-0.300
8.892,-0.285
8.896,-0.275
8.900,-0.285
8.904,-0.265
8.908,-0.260
8.912,-0.260
8.916,-0.255
8.920,-0.235
8.924,-0.225
8.928,-0.210
8.932,-0.205
8.936,-0.200
8.940,-0.200
8.944,-0.180
8.948,-0.165
8.952,-0.190
8.956,-0.160
8.960,-0.160
8.964,-0.160
8.968,-0.150
8.972,-0.155
8.976,-0.140
8.980,-0.130
8.984,-0.125
8.988,-0.115
8.992,-0.115
8.996,-0.135
9.000,-0.125
9.004,-0.105
9.008,-0.100
9.012,-0.110
9.016,-0.090
9.020,-0.115
9.024,-0.140
9.028,-0.135
9.032,-0.125
9.036,-0.135
9.040,-0.165
9.044,-0.160
9.048,-0.190
9.052,-0.190
9.056,-0.215
9.060,-0.245
9.064,-0.270
9.068,-0.255
9.072,-0.270
9.076,-0.280
9.080,-0.280
9.084,-0.290
9.088,-0.285
9.092,-0.275
9.096,-0.305
9.100,-0.295
9.104,-0.300
9.108,-0.280
9.112,-0.295
9.116,-0.290
9.120,-0.270
9.124,-0.260
9.128,-0.265
9.132,-0.250
9.136,-0.275
9.140,-0.230
9.144,-0.255
9.148,-0.260
9.152,-0.255
9.156,-0.265
9.160,-0.270
9.164,-0.270
9.168,-0.255
9.172,-0.270
9.176,-0.270
9.180,-0.275
9.184,-0.305
9.188,-0.290
9.192,-0.300
9.196,-0.290
9.200,-0.305
9.204,-0.305
9.208,-0.305
9.212,-0.330
9.216,-0.320
9.220,-0.315
9.224,-0.320
9.228,-0.320
9.232,-0.325
9.236,-0.315
9.240,-0.335
9.244,-0.350
9.248,-0.340
9.252,-0.330
9.256,-0.320
9.260,-0.335
9.264,-0.335
9.268,-0.350
9.272,-0.350
9.276,-0.345
9.280,-0.375
9.284,-0.380
9.288,-0.360
9.292,-0.340
9.296,-0.340
9.300,-0.360
9.304,-0.360
9.308,-0.375
9.312,-0.360
9.316,-0.360
9.320,-0.345
9.324,-0.320
9.328,-0.275
9.332,-0.255
9.336,-0.225
9.340,-0.225
9.344,-0.260
9.348,-0.250
9.352,-0.230
9.356,-0.210
9.360,-0.210
9.364,-0.220
9.368,-0.260
9.372,-0.295
9.376,-0.345
9.380,-0.380
9.384,-0.375
9.388,-0.375
9.392,-0.365
9.396,-0.380
9.400,-0.400
9.404,-0.395
9.408,-0.390
9.412,-0.420
9.416,-0.445
9.420,-0.430
9.424,-0.410
9.428,-0.420
9.432,-0.420
9.436,-0.425
9.440,-0.440
9.444,-0.445
9.448,-0.435
9.452,-0.420
9.456,-0.435
9.460,-0.440
9.464,-0.445
9.468,-0.440
9.472,-0.430
9.476,-0.445
9.480,-0.455
9.484,-0.475
9.488,-0.485
9.492,-0.565
9.496,-0.580
9.500,-0.485
9.504,-0.210
9.508,0.290
9.512,0.855
9.516,1.105
9.520,0.685
9.524,0.015
9.528,-0.315
9.532,-0.540
9.536,-0.880
9.540,-1.115
9.544,-1.135
9.548,-1.020
9.552,-0.880
9.556,-0.720
9.560,-0.545
9.564,-0.475
9.568,-0.470
9.572,-0.490
9.576,-0.490
9.580,-0.475
9.584,-0.475
9.588,-0.460
9.592,-0.485
9.596,-0.465
9.600,-0.455
9.604,-0.470
9.608,-0.485
9.612,-0.490
9.616,-0.470
9.620,-0.455
9.624,-0.445
9.628,-0.455
9.632,-0.455
9.636,-0.460
9.640,-0.460
9.644,-0.460
9.648,-0.460
9.652,-0.455
9.656,-0.440
9.660,-0.445
9.664,-0.430
9.668,-0.445
9.672,-0.445
9.676,-0.440
9.680,-0.440
9.684,-0.430
9.688,-0.405
9.692,-0.400
9.696,-0.390
9.700,-0.410
9.704,-0.385
9.708,-0.375
9.712,-0.380
9.716,-0.375
9.720,-0.370
9.724,-0.350
9.728,-0.355
9.732,-0.340
9.736,-0.345
9.740,-0.325
9.744,-0.310
9.748,-0.310
9.752,-0.290
9.756,-0.285
9.760,-0.260
9.764,-0.275
9.768,-0.275
9.772,-0.260
9.776,-0.260
9.780,-0.260
9.784,-0.235
9.788,-0.270
9.792,-0.270
9.796,-0.250
9.800,-0.230
9.804,-0.240
9.808,-0.255
9.812,-0.265
9.816,-0.250
9.820,-0.255
9.824,-0.255
9.828,-0.280
9.832,-0.280
9.836,-0.280
9.840,-0.280
9.844,-0.270
9.848,-0.300
9.852,-0.325
9.856,-0.340
9.860,-0.330
9.864,-0.340
9.868,-0.375
9.872,-0.365
9.876,-0.375
9.880,-0.390
9.884,-0.400
9.888,-0.400
9.892,-0.420
9.896,-0.420
9.900,-0.440
9.904,-0.420
9.908,-0.420
9.912,-0.415
9.916,-0.430
9.920,-0.435
9.924,-0.430
9.928,-0.420
9.932,-0.410
9.936,-0.415
9.940,-0.395
9.944,-0.380
9.948,-0.395
9.952,-0.400
9.956,-0.380
9.960,-0.380
9.964,-0.400
9.968,-0.385
9.972,-0.365
9.976,-0.375
9.980,-0.360
9.984,-0.365
9.988,-0.365
9.992,-0.385
9.996,-0.385
10.000,-0.380
10.004,-0.380
10.008,-0.380
10.012,-0.400
10.016,-0.390
10.020,-0.405
10.024,-0.405
10.028,-0.405
10.032,-0.410
10.036,-0.400
10.040,-0.415
10.044,-0.420
10.048,-0.425
10.052,-0.425
10.056,-0.410
10.060,-0.420
10.064,-0.405
10.068,-0.425
10.072,-0.430
10.076,-0.420
10.080,-0.435
10.084,-0.440
10.088,-0.445
10.092,-0.455
10.096,-0.445
10.100,-0.435
10.104,-0.440
10.108,-0.455
10.112,-0.460
10.116,-0.480
10.120,-0.470
10.124,-0.455
10.128,-0.455
10.132,-0.460
10.136,-0.450
10.140,-0.460
10.144,-0.460
10.148,-0.450
10.152,-0.480
10.156,-0.470
10.160,-0.480
10.164,-0.470
10.168,-0.460
10.172,-0.465
10.176,-0.470
10.180,-0.475
10.184,-0.485
10.188,-0.480
10.192,-0.485
10.196,-0.490
10.200,-0.470
10.204,-0.465
10.208,-0.485
10.212,-0.480
10.216,-0.465
10.220,-0.465
10.224,-0.465
10.228,-0.465
10.232,-0.480
10.236,-0.520
10.240,-0.500
10.244,-0.500
10.248,-0.495
10.252,-0.500
10.256,-0.505
10.260,-0.495
10.264,-0.500
10.268,-0.495
10.272,-0.495
10.276,-0.495
10.280,-0.510
10.284,-0.505
10.288,-0.510
10.292,-0.490
10.296,-0.490
10.300,-0.500
10.304,-0.495
10.308,-0.460
10.312,-0.460
10.316,-0.420
10.320,-0.395
10.324,-0.375
10.328,-0.365
10.332,-0.370
10.336,-0.385
10.340,-0.365
10.344,-0.375
10.348,-0.360
10.352,-0.355
10.356,-0.400
10.360,-0.440
10.364,-0.480
10.368,-0.505
10.372,-0.540
10.376,-0.545
10.380,-0.530
10.384,-0.530
10.388,-0.510
10.392,-0.520
10.396,-0.540
10.400,-0.550
10.404,-0.560
10.408,-0.580
10.412,-0.570
10.416,-0.570
10.420,-0.580
10.424,-0.590
10.428,-0.590
10.432,-0.580
10.436,-0.585
10.440,-0.580
10.444,-0.590
10.448,-0.600
10.452,-0.595
10.456,-0.610
10.460,-0.620
10.464,-0.630
10.468,-0.650
10.472,-0.710
10.476,-0.740
10.480,-0.690
10.484,-0.510
10.488,-0.070
10.492,0.505
10.496,0.890
10.500,0.675
10.504,0.035
10.508,-0.375
10.512,-0.545
10.516,-0.675
10.520,-1.000
10.524,-1.310
10.528,-1.295
10.532,-1.120
10.536,-0.910
10.540,-0.735
10.544,-0.680
10.548,-0.660
10.552,-0.665
10.556,-0.675
10.560,-0.675
10.564,-0.685
10.568,-0.670
10.572,-0.670
10.576,-0.665
10.580,-0.670
10.584,-0.655
10.588,-0.655
10.592,-0.665
10.596,-0.675
10.600,-0.670
10.604,-0.685
10.608,-0.690
10.612,-0.665
10.616,-0.680
10.620,-0.680
10.624,-0.665
10.628,-0.655
10.632,-0.670
10.636,-0.680
10.640,-0.660
10.644,-0.650
10.648,-0.665
10.652,-0.640
10.656,-0.640
10.660,-0.660
10.664,-0.650
10.668,-0.630
10.672,-0.650
10.676,-0.640
10.680,-0.625
10.684,-0.625
10.688,-0.615
10.692,-0.600
10.696,-0.605
10.700,-0.590
10.704,-0.560
10.708,-0.595
10.712,-0.595
10.716,-0.570
10.720,-0.545
10.724,-0.540
10.728,-0.525
10.732,-0.530
10.736,-0.515
10.740,-0.505
10.744,-0.490
10.748,-0.500
10.752,-0.485
10.756,-0.465
10.760,-0.490
10.764,-0.475
10.768,-0.450
10.772,-0.455
10.776,-0.445
10.780,-0.450
10.784,-0.455
10.788,-0.450
10.792,-0.445
10.796,-0.455
10.800,-0.460
10.804,-0.445
10.808,-0.440
10.812,-0.440
10.816,-0.445
10.820,-0.450
10.824,-0.465
10.828,-0.450
10.832,-0.465
10.836,-0.475
10.840,-0.505
10.844,-0.505
10.848,-0.515
10.852,-0.535
10.856,-0.535
10.860,-0.540
10.864,-0.535
10.868,-0.580
10.872,-0.560
10.876,-0.570
10.880,-0.570
10.884,-0.560
10.888,-0.575
10.892,-0.575
10.896,-0.585
10.900,-0.605
10.904,-0.585
10.908,-0.575
10.912,-0.570
10.916,-0.585
10.920,-0.590
10.924,-0.595
10.928,-0.570
10.932,-0.560
10.936,-0.560
10.940,-0.570
10.944,-0.565
10.948,-0.565
10.952,-0.560
10.956,-0.565
10.960,-0.555
10.964,-0.565
10.968,-0.560
10.972,-0.535
10.976,-0.555
10.980,-0.565
10.984,-0.565
10.988,-0.575
10.992,-0.575
10.996,-0.580
11.000,-0.590
11.004,-0.580
11.008,-0.585
11.012,-0.580
11.016,-0.610
11.020,-0.605
11.024,-0.595
11.028,-0.625
11.032,-0.605
11.036,-0.600
11.040,-0.600
11.044,-0.615
11.048,-0.615
11.052,-0.620
11.056,-0.615
11.060,-0.620
11.064,-0.605
11.068,-0.615
11.072,-0.615
11.076,-0.625
11.080,-0.620
11.084,-0.615
11.088,-0.615
11.092,-0.635
11.096,-0.610
11.100,-0.605
11.104,-0.620
11.108,-0.610
11.112,-0.600
11.116,-0.570
11.120,-0.555
11.124,-0.525
11.128,-0.495
11.132,-0.475
11.136,-0.475
11.140,-0.490
11.144,-0.485
11.148,-0.460
11.152,-0.470
11.156,-0.505
11.160,-0.530
11.164,-0.540
11.168,-0.575
11.172,-0.610
11.176,-0.625
11.180,-0.630
11.184,-0.625
11.188,-0.625
11.192,-0.625
11.196,-0.650
11.200,-0.655
11.204,-0.670
11.208,-0.665
11.212,-0.650
11.216,-0.640
11.220,-0.645
11.224,-0.640
11.228,-0.640
11.232,-0.640
11.236,-0.640
11.240,-0.655
11.244,-0.650
11.248,-0.640
11.252,-0.640
11.256,-0.660
11.260,-0.675
11.264,-0.660
11.268,-0.650
11.272,-0.670
11.276,-0.720
11.280,-0.770
11.284,-0.790
11.288,-0.760
11.292,-0.720
11.296,-0.570
11.300,-0.220
11.304,0.290
11.308,0.640
11.312,0.460
11.316,-0.085
11.320,-0.395
11.324,-0.600
11.328,-0.925
11.332,-1.255
11.336,-1.280
11.340,-1.130
11.344,-0.905
11.348,-0.745
11.352,-0.695
11.356,-0.660
11.360,-0.635
11.364,-0.635
11.368,-0.645
11.372,-0.640
11.376,-0.660
11.380,-0.655
11.384,-0.645
11.388,-0.635
11.392,-0.640
11.396,-0.635
11.400,-0.630
11.404,-0.640
11.408,-0.645
11.412,-0.610
11.416,-0.615
11.420,-0.625
11.424,-0.650
11.428,-0.620
11.432,-0.615
11.436,-0.610
11.440,-0.605
11.444,-0.595
11.448,-0.580
11.452,-0.575
11.456,-0.575
11.460,-0.575
11.464,-0.580
11.468,-0.555
11.472,-0.560
11.476,-0.535
11.480,-0.505
11.484,-0.530
11.488,-0.540
11.492,-0.500
11.496,-0.495
11.500,-0.485
11.504,-0.460
11.508,-0.470
11.512,-0.455
11.516,-0.435
11.520,-0.435
11.524,-0.430
11.528,-0.400
11.532,-0.380
11.536,-0.370
11.540,-0.355
11.544,-0.345
11.548,-0.355
11.552,-0.325
11.556,-0.335
11.560,-0.335
11.564,-0.310
11.568,-0.280
11.572,-0.270
11.576,-0.280
11.580,-0.250
11.584,-0.260
11.588,-0.245
11.592,-0.255
11.596,-0.255
11.600,-0.260
11.604,-0.225
11.608,-0.205
11.612,-0.200
11.616,-0.225
11.620,-0.220
11.624,-0.235
11.628,-0.230
11.632,-0.255
11.636,-0.270
11.640,-0.290
11.644,-0.260
11.648,-0.255
11.652,-0.270
11.656,-0.265
11.660,-0.270
11.664,-0.290
11.668,-0.305
11.672,-0.285
11.676,-0.300
11.680,-0.305
11.684,-0.270
11.688,-0.270
11.692,-0.250
11.696,-0.265
11.700,-0.280
11.704,-0.270
11.708,-0.240
11.712,-0.245
11.716,-0.240
11.720,-0.230
11.724,-0.205
11.728,-0.205
11.732,-0.195
11.736,-0.175
11.740,-0.170
11.744,-0.170
11.748,-0.150
11.752,-0.095
11.756,-0.135
11.760,-0.155
11.764,-0.125
11.768,-0.125
11.772,-0.110
11.776,-0.100
11.780,-0.105
11.784,-0.065
11.788,-0.055
11.792,-0.060
11.796,-0.065
11.800,-0.060
11.804,-0.050
11.808,-0.040
11.812,-0.020
11.816,-0.005
11.820,-0.005
11.824,-0.020
11.828,0.000
11.832,0.005
11.836,0.000
11.840,0.010
11.844,0.035
11.848,0.045
11.852,0.030
11.856,0.000
11.860,0.015
11.864,0.030
11.868,0.020
11.872,0.050
11.876,0.050
11.880,0.050
11.884,0.035
11.888,0.035
11.892,0.030
11.896,0.035
11.900,0.045
11.904,0.060
11.908,0.090
11.912,0.095
11.916,0.095
11.920,0.100
11.924,0.100
11.928,0.090
11.932,0.070
11.936,0.085
11.940,0.090
11.944,0.100
11.948,0.135
11.952,0.160
11.956,0.190
11.960,0.235
11.964,0.255
11.968,0.245
11.972,0.260
11.976,0.300
11.980,0.315
11.984,0.325
11.988,0.310
11.992,0.285
11.996,0.270
12.000,0.265
12.004,0.205
12.008,0.195
12.012,0.185
12.016,0.190
12.020,0.205
12.024,0.185
12.028,0.165
12.032,0.165
12.036,0.165
12.040,0.180
12.044,0.175
12.048,0.200
12.052,0.200
12.056,0.190
12.060,0.195
12.064,0.205
12.068,0.210
12.072,0.200
12.076,0.215
12.080,0.195
12.084,0.195
12.088,0.210
12.092,0.215
12.096,0.195
12.100,0.220
12.104,0.200
12.108,0.125
12.112,0.075
12.116,0.065
12.120,0.110
12.124,0.245
12.128,0.585
12.132,1.150
12.136,1.685
12.140,1.730
12.144,1.105
12.148,0.545
12.152,0.330
12.156,0.115
12.160,-0.250
12.164,-0.390
12.168,-0.300
12.172,-0.110
12.176,0.135
12.180,0.260
12.184,0.305
12.188,0.310
12.192,0.325
12.196,0.315
12.200,0.330
12.204,0.350
12.208,0.360
12.212,0.375
12.216,0.380
12.220,0.395
12.224,0.390
12.228,0.385
12.232,0.395
12.236,0.385
12.240,0.415
12.244,0.420
12.248,0.425
12.252,0.425
12.256,0.400
12.260,0.405
12.264,0.425
12.268,0.455
12.272,0.435
12.276,0.460
12.280,0.460
12.284,0.475
12.288,0.450
12.292,0.455
12.296,0.480
12.300,0.480
12.304,0.505
12.308,0.505
12.312,0.525
12.316,0.540
12.320,0.540
12.324,0.545
12.328,0.555
12.332,0.545
12.336,0.560
12.340,0.580
12.344,0.595
12.348,0.580
12.352,0.625
12.356,0.650
12.360,0.670
12.364,0.670
12.368,0.690
12.372,0.720
12.376,0.730
12.380,0.715
12.384,0.745
12.388,0.760
12.392,0.745
12.396,0.725
12.400,0.735
12.404,0.740
12.408,0.745
12.412,0.780
12.416,0.825
12.420,0.815
12.424,0.830
12.428,0.835
12.432,0.845
12.436,0.825
12.440,0.830
12.444,0.825
12.448,0.830
12.452,0.825
12.456,0.845
12.460,0.810
12.464,0.810
12.468,0.815
12.472,0.800
12.476,0.760
12.480,0.765
12.484,0.755
12.488,0.720
12.492,0.705
12.496,0.710
12.500,0.710
12.504,0.710
12.508,0.710
12.512,0.685
12.516,0.685
12.520,0.705
12.524,0.705
12.528,0.685
12.532,0.690
12.536,0.685
12.540,0.695
12.544,0.700
12.548,0.700
12.552,0.700
12.556,0.695
12.560,0.705
12.564,0.720
12.568,0.740
12.572,0.760
12.576,0.720
12.580,0.715
12.584,0.745
12.588,0.735
12.592,0.750
12.596,0.745
12.600,0.735
12.604,0.750
12.608,0.760
12.612,0.750
12.616,0.760
12.620,0.750
12.624,0.750
12.628,0.730
12.632,0.725
12.636,0.720
12.640,0.705
12.644,0.710
12.648,0.715
12.652,0.720
12.656,0.705
12.660,0.715
12.664,0.715
12.668,0.695
12.672,0.720
12.676,0.710
12.680,0.685
12.684,0.695
12.688,0.710
12.692,0.710
12.696,0.695
12.700,0.700
12.704,0.705
12.708,0.700
12.712,0.690
12.716,0.695
12.720,0.715
12.724,0.700
12.728,0.700
12.732,0.690
12.736,0.680
12.740,0.685
12.744,0.695
12.748,0.700
12.752,0.685
12.756,0.660
12.760,0.680
12.764,0.690
12.768,0.695
12.772,0.685
12.776,0.700
12.780,0.695
12.784,0.695
12.788,0.715
12.792,0.760
12.796,0.790
12.800,0.810
12.804,0.800
12.808,0.790
12.812,0.770
12.816,0.805
12.820,0.830
12.824,0.810
12.828,0.795
12.832,0.750
12.836,0.720
12.840,0.690
12.844,0.665
12.848,0.655
12.852,0.670
12.856,0.660
12.860,0.655
12.864,0.675
12.868,0.630
12.872,0.605
12.876,0.605
12.880,0.600
12.884,0.590
12.888,0.600
12.892,0.610
12.896,0.615
12.900,0.600
12.904,0.600
12.908,0.590
12.912,0.605
12.916,0.610
12.920,0.605
12.924,0.600
12.928,0.600
12.932,0.615
12.936,0.605
12.940,0.570
12.944,0.530
12.948,0.465
12.952,0.440
12.956,0.485
12.960,0.685
12.964,1.140
12.968,1.650
12.972,1.980
12.976,1.720
12.980,1.095
12.984,0.750
12.988,0.555
12.992,0.225
12.996,-0.080
13.000,-0.090
13.004,0.005
13.008,0.120
13.012,0.290
13.016,0.495
13.020,0.580
13.024,0.570
13.028,0.565
13.032,0.585
13.036,0.585
13.040,0.585
13.044,0.575
13.048,0.550
13.052,0.565
13.056,0.580
13.060,0.565
13.064,0.570
13.068,0.585
13.072,0.575
13.076,0.550
13.080,0.570
13.084,0.550
13.088,0.550
13.092,0.555
13.096,0.555
13.100,0.560
13.104,0.570
13.108,0.555
13.112,0.560
13.116,0.575
13.120,0.555
13.124,0.570
13.128,0.570
13.132,0.580
13.136,0.570
13.140,0.570
13.144,0.585
13.148,0.590
13.152,0.555
13.156,0.575
13.160,0.590
13.164,0.590
13.168,0.600
13.172,0.605
13.176,0.600
13.180,0.605
13.184,0.635
13.188,0.650
13.192,0.650
13.196,0.650
13.200,0.640
13.204,0.655
13.208,0.665
13.212,0.670
13.216,0.660
13.220,0.670
13.224,0.680
13.228,0.670
13.232,0.685
13.236,0.685
13.240,0.690
13.244,0.675
13.248,0.700
13.252,0.715
13.256,0.710
13.260,0.710
13.264,0.685
13.268,0.680
13.272,0.680
13.276,0.680
13.280,0.690
13.284,0.675
13.288,0.665
13.292,0.675
13.296,0.670
13.300,0.650
13.304,0.640
13.308,0.640
13.312,0.630
13.316,0.635
13.320,0.590
13.324,0.605
13.328,0.580
13.332,0.560
13.336,0.555
13.340,0.545
13.344,0.565
13.348,0.550
13.352,0.565
13.356,0.555
13.360,0.550
13.364,0.550
13.368,0.540
13.372,0.560
13.376,0.530
13.380,0.520
13.384,0.530
13.388,0.545
13.392,0.545
13.396,0.550
13.400,0.560
13.404,0.540
13.408,0.555
13.412,0.540
13.416,0.560
13.420,0.535
13.424,0.540
13.428,0.540
13.432,0.545
13.436,0.535
13.440,0.550
13.444,0.550
13.448,0.525
13.452,0.515
13.456,0.515
13.460,0.515
13.464,0.520
13.468,0.510
13.472,0.515
13.476,0.495
13.480,0.510
13.484,0.490
13.488,0.495
13.492,0.480
13.496,0.465
13.500,0.490
13.504,0.480
13.508,0.485
13.512,0.460
13.516,0.455
13.520,0.485
13.524,0.470
13.528,0.465
13.532,0.470
13.536,0.450
13.540,0.430
13.544,0.435
13.548,0.430
13.552,0.445
13.556,0.440
13.560,0.465
13.564,0.455
13.568,0.450
13.572,0.445
13.576,0.445
13.580,0.440
13.584,0.435
13.588,0.440
13.592,0.435
13.596,0.430
13.600,0.420
13.604,0.415
13.608,0.405
13.612,0.415
13.616,0.435
13.620,0.430
13.624,0.445
13.628,0.465
13.632,0.460
13.636,0.500
13.640,0.505
13.644,0.525
13.648,0.545
13.652,0.565
13.656,0.550
13.660,0.550
13.664,0.570
13.668,0.555
13.672,0.525
13.676,0.515
13.680,0.470
13.684,0.425
13.688,0.425
13.692,0.395
13.696,0.385
13.700,0.420
13.704,0.420
13.708,0.385
13.712,0.375
13.716,0.370
13.720,0.375
13.724,0.375
13.728,0.370
13.732,0.375
13.736,0.335
13.740,0.335
13.744,0.345
13.748,0.360
13.752,0.360
13.756,0.350
13.760,0.375
13.764,0.375
13.768,0.360
13.772,0.355
13.776,0.335
13.780,0.320
13.784,0.315
13.788,0.300
13.792,0.235
13.796,0.185
13.800,0.215
13.804,0.365
13.808,0.710
13.812,1.205
13.816,1.625
13.820,1.595
13.824,1.080
13.828,0.625
13.832,0.450
13.836,0.355
13.840,0.135
13.844,-0.240
13.848,-0.370
13.852,-0.230
13.856,-0.010
13.860,0.190
13.864,0.275
13.868,0.290
13.872,0.290
13.876,0.280
13.880,0.295
13.884,0.300
13.888,0.295
13.892,0.275
13.896,0.270
13.900,0.275
13.904,0.285
13.908,0.290
13.912,0.290
13.916,0.265
13.920,0.300
13.924,0.290
13.928,0.300
13.932,0.320
13.936,0.305
13.940,0.270
13.944,0.255
13.948,0.270
13.952,0.285
13.956,0.300
13.960,0.295
13.964,0.270
13.968,0.270
13.972,0.260
13.976,0.285
13.980,0.280
13.984,0.280
13.988,0.280
13.992,0.290
13.996,0.275
14.000,0.290
14.004,0.280
14.008,0.310
14.012,0.320
14.016,0.330
14.020,0.340
14.024,0.330
14.028,0.335
14.032,0.335
14.036,0.335
14.040,0.345
14.044,0.380
14.048,0.375
14.052,0.375
14.056,0.380
14.060,0.405
14.064,0.400
14.068,0.405
14.072,0.395
14.076,0.395
14.080,0.410
14.084,0.410
14.088,0.425
14.092,0.435
14.096,0.425
14.100,0.435
14.104,0.450
14.108,0.445
14.112,0.430
14.116,0.445
14.120,0.460
14.124,0.445
14.128,0.440
14.132,0.440
14.136,0.435
14.140,0.425
14.144,0.410
14.148,0.395
14.152,0.385
14.156,0.390
14.160,0.370
14.164,0.335
14.168,0.325
14.172,0.320
14.176,0.315
14.180,0.300
14.184,0.310
14.188,0.280
14.192,0.270
14.196,0.260
14.200,0.265
14.204,0.260
14.208,0.260
14.212,0.255
14.216,0.265
14.220,0.275
14.224,0.270
14.228,0.255
14.232,0.260
14.236,0.270
14.240,0.255
14.244,0.265
14.248,0.270
14.252,0.290
14.256,0.295
14.260,0.290
14.264,0.285
14.268,0.295
14.272,0.280
14.276,0.280
14.280,0.270
14.284,0.265
14.288,0.265
14.292,0.275
14.296,0.295
14.300,0.280
14.304,0.285
14.308,0.265
14.312,0.255
14.316,0.255
14.320,0.250
14.324,0.230
14.328,0.250
14.332,0.245
14.336,0.235
14.340,0.220
14.344,0.225
14.348,0.210
14.352,0.220
14.356,0.215
14.360,0.205
14.364,0.200
14.368,0.195
14.372,0.195
14.376,0.200
14.380,0.200
14.384,0.200
14.388,0.190
14.392,0.170
14.396,0.170
14.400,0.180
14.404,0.185
14.408,0.200
14.412,0.200
14.416,0.170
14.420,0.170
14.424,0.150
14.428,0.150
14.432,0.160
14.436,0.155
14.440,0.165
14.444,0.180
14.448,0.185
14.452,0.170
14.456,0.150
14.460,0.160
14.464,0.190
14.468,0.190
14.472,0.190
14.476,0.235
14.480,0.250
14.484,0.265
14.488,0.280
14.492,0.250
14.496,0.290
14.500,0.315
14.504,0.300
14.508,0.270
14.512,0.235
14.516,0.185
14.520,0.130
14.524,0.125
14.528,0.135
14.532,0.115
14.536,0.125
14.540,0.135
14.544,0.105
14.548,0.115
14.552,0.110
14.556,0.090
14.560,0.075
14.564,0.070
14.568,0.080
14.572,0.070
14.576,0.050
14.580,0.040
14.584,0.060
14.588,0.075
14.592,0.050
14.596,0.035
14.600,0.070
14.604,0.075
14.608,0.065
14.612,0.080
14.616,0.065
14.620,0.035
14.624,-0.015
14.628,-0.065
14.632,-0.090
14.636,-0.040
14.640,0.145
14.644,0.575
14.648,1.125
14.652,1.585
14.656,1.710
14.660,1.385
14.664,0.755
14.668,0.295
14.672,0.045
14.676,-0.285
14.680,-0.595
14.684,-0.635
14.688,-0.505
14.692,-0.280
14.696,-0.100
14.700,0.005
14.704,0.030
14.708,0.005
14.712,-0.015
14.716,-0.010
14.720,0.020
14.724,0.045
14.728,0.015
14.732,0.015
14.736,0.000
14.740,0.015
14.744,0.020
14.748,0.015
14.752,0.000
14.756,-0.005
14.760,-0.015
14.764,-0.025
14.768,-0.045
14.772,0.005
14.776,0.025
14.780,0.015
14.784,0.000
14.788,-0.015
14.792,-0.005
14.796,0.000
14.800,-0.010
14.804,0.000
14.808,0.005
14.812,0.025
14.816,0.010
14.820,0.010
14.824,-0.010
14.828,-0.005
14.832,0.000
14.836,0.025
14.840,0.030
14.844,0.035
14.848,0.020
14.852,0.035
14.856,0.050
14.860,0.040
14.864,0.070
14.868,0.090
14.872,0.105
14.876,0.100
14.880,0.100
14.884,0.100
14.888,0.095
14.892,0.110
14.896,0.130
14.900,0.135
14.904,0.125
14.908,0.120
14.912,0.150
14.916,0.130
14.920,0.130
14.924,0.130
14.928,0.140
14.932,0.135
14.936,0.130
14.940,0.150
14.944,0.145
14.948,0.135
14.952,0.140
14.956,0.150
14.960,0.145
14.964,0.145
14.968,0.155
14.972,0.140
14.976,0.115
14.980,0.105
14.984,0.105
14.988,0.105
14.992,0.065
14.996,0.050
15.000,0.030
15.004,0.040
15.008,0.025
15.012,0.010
15.016,0.000
15.020,-0.010
15.024,-0.005
15.028,-0.010
15.032,-0.030
15.036,-0.015
15.040,-0.030
15.044,-0.025
15.048,-0.025
15.052,-0.025
15.056,-0.040
15.060,-0.035
15.064,-0.050
15.068,-0.035
15.072,-0.045
15.076,-0.035
15.080,-0.040
15.084,-0.010
15.088,0.005
15.092,-0.010
15.096,-0.025
15.100,-0.040
15.104,-0.020
15.108,-0.010
15.112,-0.020
15.116,-0.025
15.120,-0.025
15.124,-0.020
15.128,-0.015
15.132,-0.035
15.136,-0.025
15.140,-0.055
15.144,-0.050
15.148,-0.055
15.152,-0.080
15.156,-0.055
15.160,-0.065
15.164,-0.065
15.168,-0.060
15.172,-0.080
15.176,-0.085
15.180,-0.090
15.184,-0.090
15.188,-0.100
15.192,-0.135
15.196,-0.130
15.200,-0.135
15.204,-0.155
15.208,-0.140
15.212,-0.135
15.216,-0.130
15.220,-0.120
15.224,-0.130
15.228,-0.155
15.232,-0.155
15.236,-0.140
15.240,-0.150
15.244,-0.155
15.248,-0.160
15.252,-0.155
15.256,-0.155
15.260,-0.160
15.264,-0.155
15.268,-0.165
15.272,-0.160
15.276,-0.190
15.280,-0.175
15.284,-0.170
15.288,-0.185
15.292,-0.200
15.296,-0.175
15.300,-0.185
15.304,-0.175
15.308,-0.180
15.312,-0.160
15.316,-0.125
15.320,-0.095
15.324,-0.075
15.328,-0.055
15.332,-0.060
15.336,-0.065
15.340,-0.055
15.344,-0.030
15.348,-0.045
15.352,-0.075
15.356,-0.095
15.360,-0.125
15.364,-0.150
15.368,-0.180
15.372,-0.200
15.376,-0.210
15.380,-0.200
15.384,-0.210
15.388,-0.235
15.392,-0.235
15.396,-0.260
15.400,-0.250
15.404,-0.255
15.408,-0.260
15.412,-0.280
15.416,-0.270
15.420,-0.265
15.424,-0.270
15.428,-0.280
15.432,-0.280
15.436,-0.280
15.440,-0.285
15.444,-0.265
15.448,-0.270
15.452,-0.280
15.456,-0.300
15.460,-0.310
15.464,-0.350
15.468,-0.420
15.472,-0.465
15.476,-0.475
15.480,-0.440
15.484,-0.280
15.488,0.115
15.492,0.685
15.496,1.170
15.500,1.090
15.504,0.450
15.508,-0.070
15.512,-0.275
15.516,-0.580
15.520,-0.955
15.524,-1.035
15.528,-0.905
15.532,-0.715
15.536,-0.535
15.540,-0.430
15.544,-0.380
15.548,-0.360
15.552,-0.370
15.556,-0.365
15.560,-0.365
15.564,-0.360
15.568,-0.340
15.572,-0.375
15.576,-0.365
15.580,-0.345
15.584,-0.365
15.588,-0.355
15.592,-0.380
15.596,-0.350
15.600,-0.370
15.604,-0.365
15.608,-0.365
15.612,-0.370
15.616,-0.380
15.620,-0.370
15.624,-0.370
15.628,-0.370
15.632,-0.370
15.636,-0.365
15.640,-0.365
15.644,-0.350
15.648,-0.355
15.652,-0.360
15.656,-0.365
15.660,-0.365
15.664,-0.360
15.668,-0.350
15.672,-0.350
15.676,-0.330
15.680,-0.320
15.684,-0.345
15.688,-0.330
15.692,-0.325
15.696,-0.315
15.700,-0.290
15.704,-0.275
15.708,-0.295
15.712,-0.270
15.716,-0.275
15.720,-0.260
15.724,-0.255
15.728,-0.235
15.732,-0.215
15.736,-0.220
15.740,-0.235
15.744,-0.220
15.748,-0.210
15.752,-0.210
15.756,-0.225
15.760,-0.220
15.764,-0.200
15.768,-0.205
15.772,-0.200
15.776,-0.195
15.780,-0.195
15.784,-0.195
15.788,-0.180
15.792,-0.200
15.796,-0.210
15.800,-0.190
15.804,-0.180
15.808,-0.175
15.812,-0.200
15.816,-0.210
15.820,-0.225
15.824,-0.220
15.828,-0.215
15.832,-0.240
15.836,-0.250
15.840,-0.260
15.844,-0.280
15.848,-0.300
15.852,-0.320
15.856,-0.310
15.860,-0.325
15.864,-0.325
15.868,-0.350
15.872,-0.335
15.876,-0.345
15.880,-0.345
15.884,-0.340
15.888,-0.350
15.892,-0.345
15.896,-0.330
15.900,-0.320
15.904,-0.340
15.908,-0.325
15.912,-0.320
15.916,-0.320
15.920,-0.355
15.924,-0.320
15.928,-0.305
15.932,-0.320
15.936,-0.315
15.940,-0.320
15.944,-0.320
15.948,-0.310
15.952,-0.315
15.956,-0.305
15.960,-0.300
15.964,-0.310
15.968,-0.320
15.972,-0.310
15.976,-0.320
15.980,-0.330
15.984,-0.330
15.988,-0.355
15.992,-0.350
15.996,-0.340
16.000,-0.335
16.004,-0.350
16.008,-0.360
16.012,-0.335
16.016,-0.335
16.020,-0.355
16.024,-0.375
16.028,-0.365
16.032,-0.365
16.036,-0.355
16.040,-0.370
16.044,-0.365
16.048,-0.385
16.052,-0.385
16.056,-0.400
16.060,-0.380
16.064,-0.395
16.068,-0.405
16.072,-0.400
16.076,-0.375
16.080,-0.385
16.084,-0.405
16.088,-0.400
16.092,-0.390
16.096,-0.395
16.100,-0.370
16.104,-0.375
16.108,-0.405
16.112,-0.365
16.116,-0.395
16.120,-0.400
16.124,-0.365
16.128,-0.415
16.132,-0.415
16.136,-0.410
16.140,-0.410
16.144,-0.420
16.148,-0.410
16.152,-0.400
16.156,-0.415
16.160,-0.410
16.164,-0.405
16.168,-0.420
16.172,-0.420
16.176,-0.395
16.180,-0.405
16.184,-0.415
16.188,-0.410
16.192,-0.430
16.196,-0.430
16.200,-0.415
16.204,-0.400
16.208,-0.425
16.212,-0.420
16.216,-0.415
16.220,-0.420
16.224,-0.445
16.228,-0.440
16.232,-0.450
16.236,-0.425
16.240,-0.425
16.244,-0.440
16.248,-0.440
16.252,-0.430
16.256,-0.420
16.260,-0.420
16.264,-0.420
16.268,-0.420
16.272,-0.410
16.276,-0.435
16.280,-0.450
16.284,-0.430
16.288,-0.380
16.292,-0.330
16.296,-0.305
16.300,-0.300
16.304,-0.310
16.308,-0.300
16.312,-0.295
16.316,-0.295
16.320,-0.295
16.324,-0.300
16.328,-0.345
16.332,-0.360
16.336,-0.400
16.340,-0.430
16.344,-0.460
16.348,-0.480
16.352,-0.475
16.356,-0.450
16.360,-0.455
16.364,-0.455
16.368,-0.450
16.372,-0.465
16.376,-0.465
16.380,-0.480
16.384,-0.515
16.388,-0.510
16.392,-0.495
16.396,-0.490
16.400,-0.505
16.404,-0.500
16.408,-0.505
16.412,-0.500
16.416,-0.500
16.420,-0.485
16.424,-0.495
16.428,-0.500
16.432,-0.500
16.436,-0.510
16.440,-0.600
16.444,-0.655
16.448,-0.665
16.452,-0.565
16.456,-0.290
16.460,0.195
16.464,0.730
16.468,1.095
16.472,1.025
16.476,0.530
16.480,-0.020
16.484,-0.340
16.488,-0.590
16.492,-1.005
16.496,-1.225
16.500,-1.160
16.504,-0.925
16.508,-0.690
16.512,-0.575
16.516,-0.560
16.520,-0.550
16.524,-0.550
16.528,-0.555
16.532,-0.565
16.536,-0.565
16.540,-0.540
16.544,-0.535
16.548,-0.540
16.552,-0.540
16.556,-0.540
16.560,-0.545
16.564,-0.540
16.568,-0.550
16.572,-0.535
16.576,-0.540
16.580,-0.555
16.584,-0.530
16.588,-0.540
16.592,-0.535
16.596,-0.510
16.600,-0.530
16.604,-0.530
16.608,-0.520
16.612,-0.525
16.616,-0.515
16.620,-0.520
16.624,-0.500
16.628,-0.510
16.632,-0.505
16.636,-0.490
16.640,-0.500
16.644,-0.495
16.648,-0.465
16.652,-0.485
16.656,-0.470
16.660,-0.460
16.664,-0.455
16.668,-0.440
16.672,-0.445
16.676,-0.450
16.680,-0.430
16.684,-0.385
16.688,-0.395
16.692,-0.390
16.696,-0.380
16.700,-0.370
16.704,-0.375
16.708,-0.350
16.712,-0.335
16.716,-0.330
16.720,-0.305
16.724,-0.305
16.728,-0.315
16.732,-0.300
16.736,-0.295
16.740,-0.300
16.744,-0.285
16.748,-0.270
16.752,-0.275
16.756,-0.275
16.760,-0.275
16.764,-0.290
16.768,-0.270
16.772,-0.265
16.776,-0.275
16.780,-0.265
16.784,-0.285
16.788,-0.275
16.792,-0.275
16.796,-0.280
16.800,-0.290
16.804,-0.295
16.808,-0.300
16.812,-0.320
16.816,-0.325
16.820,-0.325
16.824,-0.345
16.828,-0.350
16.832,-0.385
16.836,-0.375
16.840,-0.380
16.844,-0.405
16.848,-0.430
16.852,-0.400
16.856,-0.385
16.860,-0.390
16.864,-0.400
16.868,-0.410
16.872,-0.380
16.876,-0.375
16.880,-0.365
16.884,-0.350
16.888,-0.375
16.892,-0.375
16.896,-0.380
16.900,-0.375
16.904,-0.365
16.908,-0.355
16.912,-0.340
16.916,-0.335
16.920,-0.355
16.924,-0.360
16.928,-0.385
16.932,-0.360
16.936,-0.360
16.940,-0.345
16.944,-0.340
16.948,-0.350
16.952,-0.360
16.956,-0.355
16.960,-0.365
16.964,-0.355
16.968,-0.360
16.972,-0.365
16.976,-0.380
16.980,-0.375
16.984,-0.375
16.988,-0.385
16.992,-0.385
16.996,-0.385
17.000,-0.380
17.004,-0.390
17.008,-0.390
17.012,-0.380
17.016,-0.395
17.020,-0.410
17.024,-0.395
17.028,-0.395
17.032,-0.395
17.036,-0.410
17.040,-0.400
17.044,-0.405
17.048,-0.420
17.052,-0.395
17.056,-0.400
17.060,-0.400
17.064,-0.390
17.068,-0.405
17.072,-0.390
17.076,-0.380
17.080,-0.375
17.084,-0.345
17.088,-0.310
17.092,-0.275
17.096,-0.270
17.100,-0.290
17.104,-0.275
17.108,-0.270
17.112,-0.280
17.116,-0.265
17.120,-0.265
17.124,-0.300
17.128,-0.325
17.132,-0.365
17.136,-0.395
17.140,-0.425
17.144,-0.415
17.148,-0.420
17.152,-0.390
17.156,-0.410
17.160,-0.420
17.164,-0.425
17.168,-0.445
17.172,-0.475
17.176,-0.455
17.180,-0.450
17.184,-0.465
17.188,-0.465
17.192,-0.450
17.196,-0.475
17.200,-0.465
17.204,-0.465
17.208,-0.460
17.212,-0.465
17.216,-0.445
17.220,-0.470
17.224,-0.480
17.228,-0.485
17.232,-0.500
17.236,-0.505
17.240,-0.515
17.244,-0.535
17.248,-0.610
17.252,-0.625
17.256,-0.540
17.260,-0.295
17.264,0.150
17.268,0.715
17.272,1.130
17.276,1.055
17.280,0.540
17.284,0.000
17.288,-0.350
17.292,-0.565
17.296,-0.895
17.300,-1.150
17.304,-1.120
17.308,-0.995
17.312,-0.780
17.316,-0.575
17.320,-0.505
17.324,-0.500
17.328,-0.490
17.332,-0.515
17.336,-0.510
17.340,-0.535
17.344,-0.505
17.348,-0.505
17.352,-0.525
17.356,-0.520
17.360,-0.510
17.364,-0.495
17.368,-0.520
17.372,-0.510
17.376,-0.510
17.380,-0.510
17.384,-0.495
17.388,-0.505
17.392,-0.505
17.396,-0.505
17.400,-0.495
17.404,-0.455
17.408,-0.465
17.412,-0.480
17.416,-0.495
17.420,-0.490
17.424,-0.490
17.428,-0.490
17.432,-0.480
17.436,-0.470
17.440,-0.465
17.444,-0.460
17.448,-0.445
17.452,-0.430
17.456,-0.435
17.460,-0.450
17.464,-0.450
17.468,-0.415
17.472,-0.405
17.476,-0.410
17.480,-0.385
17.484,-0.375
17.488,-0.350
17.492,-0.355
17.496,-0.355
17.500,-0.365
17.504,-0.355
17.508,-0.335
17.512,-0.330
17.516,-0.320
17.520,-0.315
17.524,-0.300
17.528,-0.315
17.532,-0.295
17.536,-0.300
17.540,-0.335
17.544,-0.330
17.548,-0.315
17.552,-0.310
17.556,-0.290
17.560,-0.280
17.564,-0.295
17.568,-0.290
17.572,-0.300
17.576,-0.300
17.580,-0.290
17.584,-0.295
17.588,-0.280
17.592,-0.295
17.596,-0.305
17.600,-0.310
17.604,-0.330
17.608,-0.340
17.612,-0.340
17.616,-0.370
17.620,-0.385
17.624,-0.400
17.628,-0.435
17.632,-0.445
17.636,-0.435
17.640,-0.445
17.644,-0.450
17.648,-0.430
17.652,-0.425
17.656,-0.420
17.660,-0.425
17.664,-0.445
17.668,-0.430
17.672,-0.420
17.676,-0.435
17.680,-0.435
17.684,-0.425
17.688,-0.415
17.692,-0.415
17.696,-0.405
17.700,-0.390
17.704,-0.400
17.708,-0.390
17.712,-0.380
17.716,-0.375
17.720,-0.350
17.724,-0.335
17.728,-0.365
17.732,-0.375
17.736,-0.360
17.740,-0.390
17.744,-0.360
17.748,-0.360
17.752,-0.360
17.756,-0.375
17.760,-0.385
17.764,-0.375
17.768,-0.385
17.772,-0.395
17.776,-0.400
17.780,-0.375
17.784,-0.420
17.788,-0.415
17.792,-0.395
17.796,-0.400
17.800,-0.420
17.804,-0.400
17.808,-0.395
17.812,-0.400
17.816,-0.400
17.820,-0.400
17.824,-0.405
17.828,-0.400
17.832,-0.425
17.836,-0.425
17.840,-0.420
17.844,-0.400
17.848,-0.430
17.852,-0.440
17.856,-0.425
17.860,-0.415
17.864,-0.410
17.868,-0.420
17.872,-0.415
17.876,-0.425
17.880,-0.425
17.884,-0.425
17.888,-0.425
17.892,-0.415
17.896,-0.395
17.900,-0.430
17.904,-0.445
17.908,-0.450
17.912,-0.440
17.916,-0.405
17.920,-0.420
17.924,-0.435
17.928,-0.435
17.932,-0.420
17.936,-0.410
17.940,-0.425
17.944,-0.430
17.948,-0.430
17.952,-0.425
17.956,-0.420
17.960,-0.425
17.964,-0.425
17.968,-0.435
17.972,-0.440
17.976,-0.435
17.980,-0.420
17.984,-0.415
17.988,-0.400
17.992,-0.430
17.996,-0.450
18.000,-0.435
18.004,-0.430
18.008,-0.410
18.012,-0.400
18.016,-0.385
18.020,-0.400
18.024,-0.415
18.028,-0.415
18.032,-0.425
18.036,-0.430
18.040,-0.415
18.044,-0.410
18.048,-0.390
18.052,-0.400
18.056,-0.350
18.060,-0.320
18.064,-0.300
18.068,-0.275
18.072,-0.290
18.076,-0.280
18.080,-0.265
18.084,-0.255
18.088,-0.230
18.092,-0.225
18.096,-0.265
18.100,-0.310
18.104,-0.320
18.108,-0.340
18.112,-0.405
18.116,-0.430
18.120,-0.425
18.124,-0.440
18.128,-0.400
18.132,-0.410
18.136,-0.400
18.140,-0.435
18.144,-0.440
18.148,-0.440
18.152,-0.440
18.156,-0.440
18.160,-0.460
18.164,-0.480
18.168,-0.470
18.172,-0.470
18.176,-0.455
18.180,-0.465
18.184,-0.470
18.188,-0.480
18.192,-0.460
18.196,-0.460
18.200,-0.480
18.204,-0.505
18.208,-0.540
18.212,-0.635
18.216,-0.650
18.220,-0.635
18.224,-0.560
18.228,-0.270
18.232,0.270
18.236,0.880
18.240,1.170
18.244,0.750
18.248,0.045
18.252,-0.335
18.256,-0.565
18.260,-0.920
18.264,-1.160
18.268,-1.115
18.272,-0.985
18.276,-0.805
18.280,-0.640
18.284,-0.555
18.288,-0.500
18.292,-0.500
18.296,-0.515
18.300,-0.510
18.304,-0.510
18.308,-0.505
18.312,-0.500
18.316,-0.510
18.320,-0.500
18.324,-0.485
18.328,-0.505
18.332,-0.500
18.336,-0.490
18.340,-0.495
18.344,-0.480
18.348,-0.485
18.352,-0.475
18.356,-0.515
18.360,-0.510
18.364,-0.505
18.368,-0.490
18.372,-0.495
18.376,-0.480
18.380,-0.480
18.384,-0.470
18.388,-0.500
18.392,-0.475
18.396,-0.470
18.400,-0.460
18.404,-0.450
18.408,-0.460
18.412,-0.455
18.416,-0.455
18.420,-0.435
18.424,-0.415
18.428,-0.425
18.432,-0.430
18.436,-0.430
18.440,-0.395
18.444,-0.385
18.448,-0.385
18.452,-0.375
18.456,-0.350
18.460,-0.350
18.464,-0.340
18.468,-0.320
18.472,-0.325
18.476,-0.320
18.480,-0.310
18.484,-0.305
18.488,-0.285
18.492,-0.280
18.496,-0.275
18.500,-0.265
18.504,-0.275
18.508,-0.285
18.512,-0.280
18.516,-0.255
18.520,-0.240
18.524,-0.250
18.528,-0.230
18.532,-0.240
18.536,-0.255
18.540,-0.260
18.544,-0.265
18.548,-0.265
18.552,-0.245
18.556,-0.245
18.560,-0.250
18.564,-0.260
18.568,-0.245
18.572,-0.260
18.576,-0.265
18.580,-0.270
18.584,-0.295
18.588,-0.315
18.592,-0.325
18.596,-0.335
18.600,-0.320
18.604,-0.330
18.608,-0.345
18.612,-0.350
18.616,-0.375
18.620,-0.365
18.624,-0.365
18.628,-0.385
18.632,-0.395
18.636,-0.375
18.640,-0.370
18.644,-0.365
18.648,-0.340
18.652,-0.340
18.656,-0.390
18.660,-0.360
18.664,-0.340
18.668,-0.335
18.672,-0.345
18.676,-0.315
18.680,-0.330
18.684,-0.335
18.688,-0.320
18.692,-0.335
18.696,-0.320
18.700,-0.310
18.704,-0.290
18.708,-0.320
18.712,-0.300
18.716,-0.305
18.720,-0.315
18.724,-0.330
18.728,-0.345
18.732,-0.315
18.736,-0.310
18.740,-0.305
18.744,-0.340
18.748,-0.325
18.752,-0.325
18.756,-0.320
18.760,-0.330
18.764,-0.350
18.768,-0.330
18.772,-0.370
18.776,-0.355
18.780,-0.360
18.784,-0.355
18.788,-0.375
18.792,-0.340
18.796,-0.335
18.800,-0.345
18.804,-0.355
18.808,-0.360
18.812,-0.340
18.816,-0.350
18.820,-0.355
18.824,-0.360
18.828,-0.355
18.832,-0.350
18.836,-0.360
18.840,-0.355
18.844,-0.330
18.848,-0.340
18.852,-0.360
18.856,-0.360
18.860,-0.330
18.864,-0.325
18.868,-0.335
18.872,-0.340
18.876,-0.300
18.880,-0.270
18.884,-0.235
18.888,-0.200
18.892,-0.205
18.896,-0.230
18.900,-0.215
18.904,-0.185
18.908,-0.180
18.912,-0.200
18.916,-0.200
18.920,-0.255
18.924,-0.290
18.928,-0.320
18.932,-0.350
18.936,-0.350
18.940,-0.370
18.944,-0.350
18.948,-0.340
18.952,-0.370
18.956,-0.380
18.960,-0.390
18.964,-0.395
18.968,-0.400
18.972,-0.385
18.976,-0.385
18.980,-0.395
18.984,-0.385
18.988,-0.385
18.992,-0.395
18.996,-0.400
19.000,-0.385
19.004,-0.370
19.008,-0.360
19.012,-0.405
19.016,-0.415
19.020,-0.400
19.024,-0.410
19.028,-0.400
19.032,-0.395
19.036,-0.420
19.040,-0.520
19.044,-0.510
19.048,-0.440
19.052,-0.175
19.056,0.345
19.060,0.855
19.064,1.020
19.068,0.555
19.072,-0.015
19.076,-0.280
19.080,-0.535
19.084,-0.910
19.088,-1.125
19.092,-1.090
19.096,-1.000
19.100,-0.840
19.104,-0.595
19.108,-0.445
19.112,-0.415
19.116,-0.395
19.120,-0.400
19.124,-0.395
19.128,-0.395
19.132,-0.385
19.136,-0.395
19.140,-0.395
19.144,-0.385
19.148,-0.375
19.152,-0.400
19.156,-0.390
19.160,-0.390
19.164,-0.405
19.168,-0.390
19.172,-0.385
19.176,-0.395
19.180,-0.370
19.184,-0.370
19.188,-0.385
19.192,-0.375
19.196,-0.360
19.200,-0.385
19.204,-0.395
19.208,-0.355
19.212,-0.340
19.216,-0.345
19.220,-0.355
19.224,-0.365
19.228,-0.360
19.232,-0.345
19.236,-0.340
19.240,-0.335
19.244,-0.330
19.248,-0.335
19.252,-0.320
19.256,-0.315
19.260,-0.300
19.264,-0.290
19.268,-0.275
19.272,-0.260
19.276,-0.265
19.280,-0.285
19.284,-0.275
19.288,-0.245
19.292,-0.230
19.296,-0.240
19.300,-0.220
19.304,-0.200
19.308,-0.200
19.312,-0.200
19.316,-0.175
19.320,-0.185
19.324,-0.185
19.328,-0.180
19.332,-0.170
19.336,-0.165
19.340,-0.180
19.344,-0.185
19.348,-0.160
19.352,-0.165
19.356,-0.180
19.360,-0.175
19.364,-0.170
19.368,-0.145
19.372,-0.145
19.376,-0.160
19.380,-0.160
19.384,-0.165
19.388,-0.165
19.392,-0.175
19.396,-0.190
19.400,-0.220
19.404,-0.230
19.408,-0.220
19.412,-0.230
19.416,-0.230
19.420,-0.270
19.424,-0.265
19.428,-0.265
19.432,-0.270
19.436,-0.265
19.440,-0.260
19.444,-0.295
19.448,-0.280
19.452,-0.290
19.456,-0.290
19.460,-0.290
19.464,-0.270
19.468,-0.270
19.472,-0.230
19.476,-0.240
19.480,-0.245
19.484,-0.250
19.488,-0.250
19.492,-0.255
19.496,-0.245
19.500,-0.235
19.504,-0.230
19.508,-0.225
19.512,-0.205
19.516,-0.245
19.520,-0.235
19.524,-0.240
19.528,-0.245
19.532,-0.245
19.536,-0.240
19.540,-0.235
19.544,-0.230
19.548,-0.240
19.552,-0.240
19.556,-0.265
19.560,-0.260
19.564,-0.250
19.568,-0.250
19.572,-0.260
19.576,-0.255
19.580,-0.255
19.584,-0.270
19.588,-0.270
19.592,-0.250
19.596,-0.285
19.600,-0.275
19.604,-0.280
19.608,-0.285
19.612,-0.270
19.616,-0.260
19.620,-0.265
19.624,-0.255
19.628,-0.250
19.632,-0.265
19.636,-0.275
19.640,-0.290
19.644,-0.290
19.648,-0.310
19.652,-0.285
19.656,-0.285
19.660,-0.295
19.664,-0.265
19.668,-0.275
19.672,-0.260
19.676,-0.280
19.680,-0.280
19.684,-0.280
19.688,-0.280
19.692,-0.270
19.696,-0.270
19.700,-0.285
19.704,-0.265
19.708,-0.240
19.712,-0.255
19.716,-0.255
19.720,-0.260
19.724,-0.265
19.728,-0.250
19.732,-0.250
19.736,-0.255
19.740,-0.250
19.744,-0.245
19.748,-0.265
19.752,-0.275
19.756,-0.260
19.760,-0.265
19.764,-0.245
19.768,-0.225
19.772,-0.235
19.776,-0.235
19.780,-0.245
19.784,-0.220
19.788,-0.235
19.792,-0.240
19.796,-0.230
19.800,-0.230
19.804,-0.235
19.808,-0.235
19.812,-0.230
19.816,-0.240
19.820,-0.250
19.824,-0.230
19.828,-0.200
19.832,-0.220
19.836,-0.225
19.840,-0.235
19.844,-0.220
19.848,-0.230
19.852,-0.230
19.856,-0.240
19.860,-0.220
19.864,-0.205
19.868,-0.220
19.872,-0.225
19.876,-0.195
19.880,-0.200
19.884,-0.205
19.888,-0.180
19.892,-0.140
19.896,-0.125
19.900,-0.090
19.904,-0.060
19.908,-0.060
19.912,-0.075
19.916,-0.070
19.920,-0.065
19.924,-0.055
19.928,-0.070
19.932,-0.100
19.936,-0.110
19.940,-0.160
19.944,-0.195
19.948,-0.215
19.952,-0.220
19.956,-0.255
19.960,-0.220
19.964,-0.220
19.968,-0.215
19.972,-0.225
19.976,-0.250
19.980,-0.275
19.984,-0.265
19.988,-0.260
19.992,-0.260
19.996,-0.245
20.000,-0.260
20.004,-0.265
20.008,-0.260
20.012,-0.265
20.016,-0.260
20.020,-0.260
20.024,-0.290
20.028,-0.275
20.032,-0.255
20.036,-0.260
20.040,-0.290
20.044,-0.340
20.048,-0.390
20.052,-0.380
20.056,-0.280
20.060,0.090
20.064,0.635
20.068,1.155
20.072,1.205
20.076,0.600
20.080,0.020
20.084,-0.170
20.088,-0.265
20.092,-0.435
20.096,-0.745
20.100,-0.920
20.104,-0.870
20.108,-0.655
20.112,-0.435
20.116,-0.325
20.120,-0.300
20.124,-0.305
20.128,-0.295
20.132,-0.290
20.136,-0.300
20.140,-0.305
20.144,-0.280
20.148,-0.285
20.152,-0.285
20.156,-0.295
20.160,-0.290
20.164,-0.280
20.168,-0.285
20.172,-0.285
20.176,-0.275
20.180,-0.270
20.184,-0.280
20.188,-0.280
20.192,-0.290
20.196,-0.275
20.200,-0.280
20.204,-0.255
20.208,-0.270
20.212,-0.260
20.216,-0.245
20.220,-0.260
20.224,-0.270
20.228,-0.265
20.232,-0.265
20.236,-0.240
20.240,-0.240
20.244,-0.260
20.248,-0.230
20.252,-0.210
20.256,-0.245
20.260,-0.215
20.264,-0.210
20.268,-0.190
20.272,-0.185
20.276,-0.155
20.280,-0.155
20.284,-0.165
20.288,-0.175
20.292,-0.150
20.296,-0.135
20.300,-0.140
20.304,-0.130
20.308,-0.105
20.312,-0.105
20.316,-0.085
20.320,-0.090
20.324,-0.075
20.328,-0.075
20.332,-0.055
20.336,-0.055
20.340,-0.070
20.344,-0.080
20.348,-0.080
20.352,-0.050
20.356,-0.045
20.360,-0.030
20.364,-0.025
20.368,-0.030
20.372,-0.040
20.376,-0.020
20.380,-0.035
20.384,-0.035
20.388,-0.025
20.392,-0.020
20.396,-0.020
20.400,-0.040
20.404,-0.065
20.408,-0.060
20.412,-0.070
20.416,-0.090
20.420,-0.130
20.424,-0.130
20.428,-0.135
20.432,-0.145
20.436,-0.160
20.440,-0.190
20.444,-0.165
20.448,-0.180
20.452,-0.200
20.456,-0.205
20.460,-0.185
20.464,-0.190
20.468,-0.185
20.472,-0.195
20.476,-0.220
20.480,-0.175
20.484,-0.170
20.488,-0.175
20.492,-0.160
20.496,-0.150
20.500,-0.140
20.504,-0.160
20.508,-0.170
20.512,-0.170
20.516,-0.135
20.520,-0.155
20.524,-0.170
20.528,-0.145
20.532,-0.145
20.536,-0.160
20.540,-0.160
20.544,-0.155
20.548,-0.135
20.552,-0.130
20.556,-0.140
20.560,-0.160
20.564,-0.160
20.568,-0.165
20.572,-0.170
20.576,-0.170
20.580,-0.190
20.584,-0.200
20.588,-0.170
20.592,-0.160
20.596,-0.185
20.600,-0.225
20.604,-0.235
20.608,-0.240
20.612,-0.240
20.616,-0.210
20.620,-0.205
20.624,-0.200
20.628,-0.205
20.632,-0.205
20.636,-0.220
20.640,-0.230
20.644,-0.225
20.648,-0.240
20.652,-0.245
20.656,-0.230
20.660,-0.210
20.664,-0.215
20.668,-0.210
20.672,-0.230
20.676,-0.210
20.680,-0.220
20.684,-0.205
20.688,-0.185
20.692,-0.155
20.696,-0.120
20.700,-0.095
20.704,-0.070
20.708,-0.060
20.712,-0.095
20.716,-0.095
20.720,-0.095
20.724,-0.095
20.728,-0.100
20.732,-0.125
20.736,-0.160
20.740,-0.205
20.744,-0.240
20.748,-0.260
20.752,-0.260
20.756,-0.260
20.760,-0.260
20.764,-0.270
20.768,-0.255
20.772,-0.220
20.776,-0.240
20.780,-0.270
20.784,-0.270
20.788,-0.275
20.792,-0.295
20.796,-0.290
20.800,-0.280
20.804,-0.295
20.808,-0.300
20.812,-0.300
20.816,-0.295
20.820,-0.280
20.824,-0.280
20.828,-0.290
20.832,-0.285
20.836,-0.280
20.840,-0.290
20.844,-0.310
20.848,-0.335
20.852,-0.420
20.856,-0.435
20.860,-0.340
20.864,-0.050
20.868,0.470
20.872,1.130
20.876,1.455
20.880,1.035
20.884,0.295
20.888,-0.125
20.892,-0.305
20.896,-0.460
20.900,-0.735
20.904,-0.960
20.908,-0.915
20.912,-0.765
20.916,-0.555
20.920,-0.385
20.924,-0.330
20.928,-0.320
20.932,-0.315
20.936,-0.310
20.940,-0.330
20.944,-0.335
20.948,-0.330
20.952,-0.320
20.956,-0.330
20.960,-0.320
20.964,-0.310
20.968,-0.295
20.972,-0.315
20.976,-0.320
20.980,-0.295
20.984,-0.285
20.988,-0.290
20.992,-0.280
20.996,-0.280
21.000,-0.295
21.004,-0.295
21.008,-0.300
21.012,-0.300
21.016,-0.295
21.020,-0.285
21.024,-0.280
21.028,-0.270
21.032,-0.270
21.036,-0.265
21.040,-0.260
21.044,-0.285
21.048,-0.265
21.052,-0.260
21.056,-0.230
21.060,-0.220
21.064,-0.230
21.068,-0.240
21.072,-0.230
21.076,-0.210
21.080,-0.200
21.084,-0.200
21.088,-0.190
21.092,-0.175
21.096,-0.155
21.100,-0.150
21.104,-0.150
21.108,-0.120
21.112,-0.120
21.116,-0.115
21.120,-0.125
21.124,-0.120
21.128,-0.115
21.132,-0.105
21.136,-0.090
21.140,-0.085
21.144,-0.095
21.148,-0.080
21.152,-0.100
21.156,-0.100
21.160,-0.100
21.164,-0.100
21.168,-0.085
21.172,-0.085
21.176,-0.100
21.180,-0.110
21.184,-0.100
21.188,-0.095
21.192,-0.095
21.196,-0.125
21.200,-0.130
21.204,-0.135
21.208,-0.140
21.212,-0.135
21.216,-0.145
21.220,-0.160
21.224,-0.175
21.228,-0.200
21.232,-0.230
21.236,-0.230
21.240,-0.235
21.244,-0.240
21.248,-0.255
21.252,-0.255
21.256,-0.265
21.260,-0.260
21.264,-0.265
21.268,-0.255
21.272,-0.235
21.276,-0.260
21.280,-0.250
21.284,-0.250
21.288,-0.230
21.292,-0.235
21.296,-0.240
21.300,-0.235
21.304,-0.220
21.308,-0.225
21.312,-0.205
21.316,-0.205
21.320,-0.200
21.324,-0.205
21.328,-0.215
21.332,-0.245
21.336,-0.255
21.340,-0.225
21.344,-0.230
21.348,-0.240
21.352,-0.215
21.356,-0.220
21.360,-0.235
21.364,-0.235
21.368,-0.225
21.372,-0.230
21.376,-0.235
21.380,-0.240
21.384,-0.250
21.388,-0.255
21.392,-0.245
21.396,-0.260
21.400,-0.260
21.404,-0.265
21.408,-0.280
21.412,-0.280
21.416,-0.270
21.420,-0.285
21.424,-0.285
21.428,-0.285
21.432,-0.275
21.436,-0.280
21.440,-0.280
21.444,-0.270
21.448,-0.290
21.452,-0.330
21.456,-0.315
21.460,-0.300
21.464,-0.290
21.468,-0.290
21.472,-0.280
21.476,-0.290
21.480,-0.310
21.484,-0.300
21.488,-0.290
21.492,-0.295
21.496,-0.310
21.500,-0.305
21.504,-0.295
21.508,-0.305
21.512,-0.305
21.516,-0.275
21.520,-0.280
21.524,-0.310
21.528,-0.300
21.532,-0.290
21.536,-0.290
21.540,-0.285
21.544,-0.305
21.548,-0.280
21.552,-0.305
21.556,-0.295
21.560,-0.295
21.564,-0.310
21.568,-0.305
21.572,-0.300
21.576,-0.300
21.580,-0.290
21.584,-0.270
21.588,-0.290
21.592,-0.290
21.596,-0.310
21.600,-0.305
21.604,-0.295
21.608,-0.305
21.612,-0.285
21.616,-0.305
21.620,-0.305
21.624,-0.310
21.628,-0.300
21.632,-0.320
21.636,-0.290
21.640,-0.280
21.644,-0.285
21.648,-0.285
21.652,-0.295
21.656,-0.300
21.660,-0.315
21.664,-0.310
21.668,-0.295
21.672,-0.305
21.676,-0.295
21.680,-0.275
21.684,-0.310
21.688,-0.300
21.692,-0.290
21.696,-0.295
21.700,-0.290
21.704,-0.280
21.708,-0.250
21.712,-0.230
21.716,-0.200
21.720,-0.180
21.724,-0.170
21.728,-0.195
21.732,-0.180
21.736,-0.165
21.740,-0.175
21.744,-0.195
21.748,-0.210
21.752,-0.260
21.756,-0.295
21.760,-0.300
21.764,-0.335
21.768,-0.350
21.772,-0.315
21.776,-0.295
21.780,-0.290
21.784,-0.295
21.788,-0.295
21.792,-0.300
21.796,-0.315
21.800,-0.335
21.804,-0.345
21.808,-0.340
21.812,-0.335
21.816,-0.325
21.820,-0.335
21.824,-0.340
21.828,-0.320
21.832,-0.305
21.836,-0.320
21.840,-0.320
21.844,-0.345
21.848,-0.370
21.852,-0.425
21.856,-0.475
21.860,-0.430
21.864,-0.295
21.868,0.065
21.872,0.615
21.876,1.080
21.880,1.040
21.884,0.425
21.888,-0.075
21.892,-0.250
21.896,-0.345
21.900,-0.600
21.904,-0.905
21.908,-1.035
21.912,-0.900
21.916,-0.695
21.920,-0.495
21.924,-0.385
21.928,-0.360
21.932,-0.370
21.936,-0.375
21.940,-0.370
21.944,-0.370
21.948,-0.370
21.952,-0.380
21.956,-0.380
21.960,-0.350
21.964,-0.355
21.968,-0.350
21.972,-0.365
21.976,-0.375
21.980,-0.375
21.984,-0.350
21.988,-0.375
21.992,-0.375
21.996,-0.360
22.000,-0.345
22.004,-0.365
22.008,-0.360
22.012,-0.350
22.016,-0.360
22.020,-0.355
22.024,-0.355
22.028,-0.345
22.032,-0.345
22.036,-0.320
22.040,-0.330
22.044,-0.320
22.048,-0.320
22.052,-0.305
22.056,-0.305
22.060,-0.310
22.064,-0.300
22.068,-0.280
22.072,-0.265
22.076,-0.255
22.080,-0.245
22.084,-0.275
22.088,-0.265
22.092,-0.235
22.096,-0.245
22.100,-0.230
22.104,-0.205
22.108,-0.200
22.112,-0.200
22.116,-0.190
22.120,-0.185
22.124,-0.170
22.128,-0.155
22.132,-0.150
22.136,-0.150
22.140,-0.155
22.144,-0.135
22.148,-0.135
22.152,-0.130
22.156,-0.140
22.160,-0.140
22.164,-0.145
22.168,-0.135
22.172,-0.140
22.176,-0.105
22.180,-0.120
22.184,-0.105
22.188,-0.110
22.192,-0.095
22.196,-0.105
22.200,-0.110
22.204,-0.105
22.208,-0.080
22.212,-0.100
22.216,-0.120
22.220,-0.145
22.224,-0.160
22.228,-0.175
22.232,-0.160
22.236,-0.180
22.240,-0.200
22.244,-0.220
22.248,-0.225
22.252,-0.265
22.256,-0.265
22.260,-0.260
22.264,-0.265
22.268,-0.275
22.272,-0.265
22.276,-0.275
22.280,-0.235
22.284,-0.245
22.288,-0.255
22.292,-0.255
22.296,-0.250
22.300,-0.255
22.304,-0.245
22.308,-0.230
22.312,-0.230
22.316,-0.245
22.320,-0.215
22.324,-0.225
22.328,-0.220
22.332,-0.210
22.336,-0.230
22.340,-0.220
22.344,-0.215
22.348,-0.230
22.352,-0.220
22.356,-0.215
22.360,-0.245
22.364,-0.250
22.368,-0.240
22.372,-0.255
22.376,-0.265
22.380,-0.265
22.384,-0.260
22.388,-0.260
22.392,-0.270
22.396,-0.260
22.400,-0.240
22.404,-0.265
22.408,-0.280
22.412,-0.300
22.416,-0.280
22.420,-0.310
22.424,-0.290
22.428,-0.305
22.432,-0.280
22.436,-0.295
22.440,-0.305
22.444,-0.325
22.448,-0.300
22.452,-0.315
22.456,-0.285
22.460,-0.290
22.464,-0.285
22.468,-0.300
22.472,-0.305
22.476,-0.305
22.480,-0.290
22.484,-0.295
22.488,-0.325
22.492,-0.330
22.496,-0.305
22.500,-0.285
22.504,-0.290
22.508,-0.320
22.512,-0.325
22.516,-0.315
22.520,-0.310
22.524,-0.280
22.528,-0.270
22.532,-0.270
22.536,-0.250
22.540,-0.210
22.544,-0.170
22.548,-0.130
22.552,-0.145
22.556,-0.175
22.560,-0.160
22.564,-0.155
22.568,-0.175
22.572,-0.210
22.576,-0.235
22.580,-0.295
22.584,-0.325
22.588,-0.335
22.592,-0.325
22.596,-0.340
22.600,-0.335
22.604,-0.330
22.608,-0.330
22.612,-0.340
22.616,-0.340
22.620,-0.345
22.624,-0.340
22.628,-0.365
22.632,-0.370
22.636,-0.380
22.640,-0.375
22.644,-0.360
22.648,-0.360
22.652,-0.360
22.656,-0.385
22.660,-0.375
22.664,-0.355
22.668,-0.370
22.672,-0.360
22.676,-0.360
22.680,-0.380
22.684,-0.375
22.688,-0.390
22.692,-0.490
22.696,-0.515
22.700,-0.470
22.704,-0.350
22.708,-0.050
22.712,0.330
22.716,0.690
22.720,0.995
22.724,0.940
22.728,0.385
22.732,-0.080
22.736,-0.310
22.740,-0.590
22.744,-0.960
22.748,-1.045
22.752,-0.920
22.756,-0.710
22.760,-0.500
22.764,-0.380
22.768,-0.350
22.772,-0.360
22.776,-0.360
22.780,-0.370
22.784,-0.380
22.788,-0.385
22.792,-0.390
22.796,-0.415
22.800,-0.380
22.804,-0.370
22.808,-0.375
22.812,-0.375
22.816,-0.365
22.820,-0.345
22.824,-0.355
22.828,-0.355
22.832,-0.345
22.836,-0.365
22.840,-0.375
22.844,-0.375
22.848,-0.355
22.852,-0.355
22.856,-0.345
22.860,-0.360
22.864,-0.360
22.868,-0.330
22.872,-0.350
22.876,-0.340
22.880,-0.310
22.884,-0.320
22.888,-0.340
22.892,-0.315
22.896,-0.305
22.900,-0.310
22.904,-0.300
22.908,-0.290
22.912,-0.295
22.916,-0.285
22.920,-0.270
22.924,-0.275
22.928,-0.245
22.932,-0.240
22.936,-0.220
22.940,-0.225
22.944,-0.220
22.948,-0.220
22.952,-0.210
22.956,-0.175
22.960,-0.185
22.964,-0.190
22.968,-0.165
22.972,-0.140
22.976,-0.155
22.980,-0.155
22.984,-0.145
22.988,-0.155
22.992,-0.155
22.996,-0.155
23.000,-0.145
23.004,-0.130
23.008,-0.135
23.012,-0.150
23.016,-0.145
23.020,-0.120
23.024,-0.125
23.028,-0.120
23.032,-0.125
23.036,-0.135
23.040,-0.120
23.044,-0.130
23.048,-0.160
23.052,-0.185
23.056,-0.190
23.060,-0.190
23.064,-0.210
23.068,-0.210
23.072,-0.235
23.076,-0.250
23.080,-0.255
23.084,-0.250
23.088,-0.280
23.092,-0.280
23.096,-0.280
23.100,-0.275
23.104,-0.275
23.108,-0.260
23.112,-0.275
23.116,-0.285
23.120,-0.295
23.124,-0.275
23.128,-0.265
23.132,-0.270
23.136,-0.295
23.140,-0.275
23.144,-0.270
23.148,-0.260
23.152,-0.260
23.156,-0.265
23.160,-0.250
23.164,-0.240
23.168,-0.250
23.172,-0.245
23.176,-0.240
23.180,-0.245
23.184,-0.225
23.188,-0.240
23.192,-0.260
23.196,-0.255
23.200,-0.265
23.204,-0.270
23.208,-0.245
23.212,-0.260
23.216,-0.250
23.220,-0.245
23.224,-0.270
23.228,-0.270
23.232,-0.285
23.236,-0.270
23.240,-0.290
23.244,-0.310
23.248,-0.290
23.252,-0.315
23.256,-0.300
23.260,-0.285
23.264,-0.290
23.268,-0.285
23.272,-0.285
23.276,-0.285
23.280,-0.285
23.284,-0.285
23.288,-0.290
23.292,-0.285
23.296,-0.290
23.300,-0.305
23.304,-0.320
23.308,-0.315
23.312,-0.300
23.316,-0.305
23.320,-0.295
23.324,-0.285
23.328,-0.285
23.332,-0.315
23.336,-0.310
23.340,-0.300
23.344,-0.325
23.348,-0.315
23.352,-0.320
23.356,-0.300
23.360,-0.320
23.364,-0.310
23.368,-0.330
23.372,-0.320
23.376,-0.310
23.380,-0.315
23.384,-0.315
23.388,-0.285
23.392,-0.305
23.396,-0.320
23.400,-0.355
23.404,-0.340
23.408,-0.320
23.412,-0.310
23.416,-0.305
23.420,-0.280
23.424,-0.330
23.428,-0.310
23.432,-0.320
23.436,-0.315
23.440,-0.330
23.444,-0.315
23.448,-0.320
23.452,-0.320
23.456,-0.320
23.460,-0.300
23.464,-0.285
23.468,-0.295
23.472,-0.315
23.476,-0.315
23.480,-0.315
23.484,-0.330
23.488,-0.320
23.492,-0.315
23.496,-0.310
23.500,-0.305
23.504,-0.305
23.508,-0.325
23.512,-0.325
23.516,-0.310
23.520,-0.280
23.524,-0.265
23.528,-0.260
23.532,-0.225
23.536,-0.195
23.540,-0.215
23.544,-0.210
23.548,-0.215
23.552,-0.195
23.556,-0.195
23.560,-0.180
23.564,-0.195
23.568,-0.240
23.572,-0.295
23.576,-0.310
23.580,-0.325
23.584,-0.370
23.588,-0.370
23.592,-0.365
23.596,-0.335
23.600,-0.315
23.604,-0.320
23.608,-0.345
23.612,-0.380
23.616,-0.395
23.620,-0.365
23.624,-0.360
23.628,-0.340
23.632,-0.335
23.636,-0.370
23.640,-0.365
23.644,-0.375
23.648,-0.375
23.652,-0.370
23.656,-0.365
23.660,-0.375
23.664,-0.380
23.668,-0.410
23.672,-0.480
23.676,-0.495
23.680,-0.415
23.684,-0.165
23.688,0.355
23.692,0.990
23.696,1.370
23.700,1.050
23.704,0.310
23.708,-0.205
23.712,-0.385
23.716,-0.470
23.720,-0.725
23.724,-0.990
23.728,-1.000
23.732,-0.870
23.736,-0.670
23.740,-0.495
23.744,-0.390
23.748,-0.385
23.752,-0.380
23.756,-0.390
23.760,-0.390
23.764,-0.375
23.768,-0.360
23.772,-0.360
23.776,-0.370
23.780,-0.360
23.784,-0.370
23.788,-0.365
23.792,-0.360
23.796,-0.370
23.800,-0.385
23.804,-0.375
23.808,-0.365
23.812,-0.370
23.816,-0.350
23.820,-0.335
23.824,-0.340
23.828,-0.360
23.832,-0.370
23.836,-0.365
23.840,-0.335
23.844,-0.360
23.848,-0.350
23.852,-0.355
23.856,-0.350
23.860,-0.330
23.864,-0.310
23.868,-0.320
23.872,-0.315
23.876,-0.290
23.880,-0.295
23.884,-0.290
23.888,-0.310
23.892,-0.300
23.896,-0.265
23.900,-0.275
23.904,-0.285
23.908,-0.270
23.912,-0.245
23.916,-0.260
23.920,-0.255
23.924,-0.230
23.928,-0.210
23.932,-0.180
23.936,-0.200
23.940,-0.195
23.944,-0.185
23.948,-0.175
23.952,-0.175
23.956,-0.175
23.960,-0.165
23.964,-0.155
23.968,-0.175
23.972,-0.150
23.976,-0.140
23.980,-0.140
23.984,-0.145
23.988,-0.155
23.992,-0.170
23.996,-0.170
24.000,-0.145
24.004,-0.160
24.008,-0.165
24.012,-0.160
24.016,-0.145
24.020,-0.145
24.024,-0.145
24.028,-0.160
24.032,-0.190
24.036,-0.180
24.040,-0.205
24.044,-0.210
24.048,-0.240
24.052,-0.270
24.056,-0.285
24.060,-0.280
24.064,-0.290
24.068,-0.325
24.072,-0.330
24.076,-0.320
24.080,-0.315
24.084,-0.330
24.088,-0.330
24.092,-0.350
24.096,-0.320
24.100,-0.335
24.104,-0.335
24.108,-0.340
24.112,-0.335
24.116,-0.350
24.120,-0.320
24.124,-0.315
24.128,-0.320
24.132,-0.320
24.136,-0.315
24.140,-0.310
24.144,-0.285
24.148,-0.275
24.152,-0.275
24.156,-0.285
24.160,-0.275
24.164,-0.300
24.168,-0.295
24.172,-0.290
24.176,-0.275
24.180,-0.270
24.184,-0.285
24.188,-0.290
24.192,-0.310
24.196,-0.305
24.200,-0.305
24.204,-0.315
24.208,-0.310
24.212,-0.325
24.216,-0.310
24.220,-0.320
24.224,-0.320
24.228,-0.360
24.232,-0.375
24.236,-0.355
24.240,-0.365
24.244,-0.360
24.248,-0.350
24.252,-0.315
24.256,-0.330
24.260,-0.345
24.264,-0.350
24.268,-0.370
24.272,-0.390
24.276,-0.370
24.280,-0.360
24.284,-0.370
24.288,-0.380
24.292,-0.390
24.296,-0.380
24.300,-0.390
24.304,-0.405
24.308,-0.390
24.312,-0.415
24.316,-0.395
24.320,-0.375
24.324,-0.380
24.328,-0.375
24.332,-0.370
24.336,-0.375
24.340,-0.340
24.344,-0.295
24.348,-0.270
24.352,-0.260
24.356,-0.275
24.360,-0.260
24.364,-0.220
24.368,-0.240
24.372,-0.300
24.376,-0.330
24.380,-0.360
24.384,-0.365
24.388,-0.395
24.392,-0.420
24.396,-0.440
24.400,-0.430
24.404,-0.415
24.408,-0.430
24.412,-0.435
24.416,-0.445
24.420,-0.450
24.424,-0.470
24.428,-0.460
24.432,-0.470
24.436,-0.475
24.440,-0.465
24.444,-0.475
24.448,-0.475
24.452,-0.420
24.456,-0.415
24.460,-0.425
24.464,-0.455
24.468,-0.465
24.472,-0.495
24.476,-0.485
24.480,-0.480
24.484,-0.480
24.488,-0.525
24.492,-0.570
24.496,-0.605
24.500,-0.580
24.504,-0.440
24.508,-0.080
24.512,0.420
24.516,0.865
24.520,1.170
24.524,1.115
24.528,0.435
24.532,-0.135
24.536,-0.375
24.540,-0.675
24.544,-1.030
24.548,-1.090
24.552,-0.960
24.556,-0.750
24.560,-0.575
24.564,-0.495
24.568,-0.495
24.572,-0.490
24.576,-0.500
24.580,-0.495
24.584,-0.500
24.588,-0.490
24.592,-0.485
24.596,-0.470
24.600,-0.475
24.604,-0.490
24.608,-0.470
24.612,-0.500
24.616,-0.500
24.620,-0.480
24.624,-0.500
24.628,-0.485
24.632,-0.480
24.636,-0.490
24.640,-0.485
24.644,-0.490
24.648,-0.495
24.652,-0.485
24.656,-0.465
24.660,-0.470
24.664,-0.470
24.668,-0.470
24.672,-0.475
24.676,-0.455
24.680,-0.440
24.684,-0.445
24.688,-0.450
24.692,-0.460
24.696,-0.455
24.700,-0.430
24.704,-0.440
24.708,-0.435
24.712,-0.430
24.716,-0.410
24.720,-0.405
24.724,-0.415
24.728,-0.390
24.732,-0.375
24.736,-0.355
24.740,-0.340
24.744,-0.335
24.748,-0.320
24.752,-0.310
24.756,-0.305
24.760,-0.290
24.764,-0.280
24.768,-0.280
24.772,-0.280
24.776,-0.305
24.780,-0.305
24.784,-0.290
24.788,-0.250
24.792,-0.255
24.796,-0.265
24.800,-0.270
24.804,-0.285
24.808,-0.275
24.812,-0.285
24.816,-0.270
24.820,-0.260
24.824,-0.245
24.828,-0.250
24.832,-0.270
24.836,-0.260
24.840,-0.270
24.844,-0.275
24.848,-0.280
24.852,-0.275
24.856,-0.300
24.860,-0.320
24.864,-0.335
24.868,-0.340
24.872,-0.360
24.876,-0.340
24.880,-0.365
24.884,-0.360
24.888,-0.365
24.892,-0.380
24.896,-0.370
24.900,-0.380
24.904,-0.405
24.908,-0.390
24.912,-0.375
24.916,-0.375
24.920,-0.380
24.924,-0.375
24.928,-0.370
24.932,-0.360
24.936,-0.350
24.940,-0.345
24.944,-0.335
24.948,-0.330
24.952,-0.320
24.956,-0.345
24.960,-0.325
24.964,-0.345
24.968,-0.325
24.972,-0.305
24.976,-0.340
24.980,-0.360
24.984,-0.340
24.988,-0.325
24.992,-0.305
24.996,-0.320
25.000,-0.310
25.004,-0.320
25.008,-0.335
25.012,-0.340
25.016,-0.315
25.020,-0.320
25.024,-0.330
25.028,-0.335
25.032,-0.335
25.036,-0.335
25.040,-0.325
25.044,-0.330
25.048,-0.335
25.052,-0.350
25.056,-0.345
25.060,-0.320
25.064,-0.345
25.068,-0.360
25.072,-0.340
25.076,-0.345
25.080,-0.340
25.084,-0.335
25.088,-0.330
25.092,-0.345
25.096,-0.350
25.100,-0.345
25.104,-0.340
25.108,-0.340
25.112,-0.320
25.116,-0.330
25.120,-0.320
25.124,-0.320
25.128,-0.305
25.132,-0.305
25.136,-0.320
25.140,-0.300
25.144,-0.320
25.148,-0.310
25.152,-0.320
25.156,-0.320
25.160,-0.300
25.164,-0.325
25.168,-0.290
25.172,-0.305
25.176,-0.305
25.180,-0.305
25.184,-0.305
25.188,-0.300
25.192,-0.295
25.196,-0.290
25.200,-0.310
25.204,-0.295
25.208,-0.275
25.212,-0.280
25.216,-0.275
25.220,-0.310
25.224,-0.305
25.228,-0.280
25.232,-0.275
25.236,-0.280
25.240,-0.260
25.244,-0.250
25.248,-0.240
25.252,-0.235
25.256,-0.235
25.260,-0.245
25.264,-0.260
25.268,-0.250
25.272,-0.265
25.276,-0.235
25.280,-0.235
25.284,-0.260
25.288,-0.260
25.292,-0.245
25.296,-0.240
25.300,-0.235
25.304,-0.210
25.308,-0.245
25.312,-0.220
25.316,-0.215
25.320,-0.225
25.324,-0.200
25.328,-0.205
25.332,-0.185
25.336,-0.145
25.340,-0.120
25.344,-0.070
25.348,-0.065
25.352,-0.050
25.356,-0.070
25.360,-0.055
25.364,-0.040
25.368,-0.015
25.372,-0.035
25.376,-0.070
25.380,-0.105
25.384,-0.125
25.388,-0.120
25.392,-0.155
25.396,-0.200
25.400,-0.205
25.404,-0.200
25.408,-0.180
25.412,-0.200
25.416,-0.195
25.420,-0.205
25.424,-0.195
25.428,-0.180
25.432,-0.200
25.436,-0.215
25.440,-0.215
25.444,-0.210
25.448,-0.220
25.452,-0.235
25.456,-0.215
25.460,-0.220
25.464,-0.215
25.468,-0.215
25.472,-0.220
25.476,-0.220
25.480,-0.215
25.484,-0.220
25.488,-0.270
25.492,-0.315
25.496,-0.335
25.500,-0.340
25.504,-0.290
25.508,-0.105
25.512,0.365
25.516,0.905
25.520,1.165
25.524,0.760
25.528,0.200
25.532,-0.095
25.536,-0.320
25.540,-0.730
25.544,-0.895
25.548,-0.790
25.552,-0.580
25.556,-0.370
25.560,-0.245
25.564,-0.200
25.568,-0.205
25.572,-0.245
25.576,-0.230
25.580,-0.215
25.584,-0.205
25.588,-0.255
25.592,-0.230
25.596,-0.210
25.600,-0.225
25.604,-0.210
25.608,-0.200
25.612,-0.220
25.616,-0.245
25.620,-0.250
25.624,-0.250
25.628,-0.200
25.632,-0.190
25.636,-0.175
25.640,-0.200
25.644,-0.205
25.648,-0.210
25.652,-0.230
25.656,-0.215
25.660,-0.210
25.664,-0.205
25.668,-0.200
25.672,-0.185
25.676,-0.170
25.680,-0.165
25.684,-0.160
25.688,-0.170
25.692,-0.160
25.696,-0.160
25.700,-0.160
25.704,-0.145
25.708,-0.125
25.712,-0.135
25.716,-0.140
25.720,-0.120
25.724,-0.085
25.728,-0.075
25.732,-0.050
25.736,-0.025
25.740,-0.035
25.744,-0.035
25.748,-0.040
25.752,-0.020
25.756,0.005
25.760,0.025
25.764,0.035
25.768,0.025
25.772,0.050
25.776,0.035
25.780,0.045
25.784,0.055
25.788,0.065
25.792,0.080
25.796,0.085
25.800,0.080
25.804,0.085
25.808,0.085
25.812,0.095
25.816,0.115
25.820,0.125
25.824,0.135
25.828,0.125
25.832,0.115
25.836,0.125
25.840,0.140
25.844,0.130
25.848,0.125
25.852,0.125
25.856,0.110
25.860,0.085
25.864,0.075
25.868,0.070
25.872,0.050
25.876,0.035
25.880,0.030
25.884,0.025
25.888,0.005
25.892,0.005
25.896,-0.005
25.900,-0.005
25.904,0.005
25.908,0.005
25.912,-0.005
25.916,-0.015
25.920,-0.010
25.924,-0.015
25.928,-0.015
25.932,0.000
25.936,0.010
25.940,0.030
25.944,0.035
25.948,0.035
25.952,0.015
25.956,0.025
25.960,0.030
25.964,0.040
25.968,0.030
25.972,0.025
25.976,0.035
25.980,0.050
25.984,0.040
25.988,0.035
25.992,0.050
25.996,0.030
26.000,0.035
26.004,0.045
26.008,0.020
26.012,0.025
26.016,0.015
26.020,0.000
26.024,0.010
26.028,0.005
26.032,0.000
26.036,0.000
26.040,0.015
26.044,0.010
26.048,0.000
26.052,0.000
26.056,-0.010
26.060,-0.010
26.064,-0.020
26.068,0.000
26.072,0.005
26.076,0.005
26.080,0.000
26.084,-0.025
26.088,0.000
26.092,-0.010
26.096,-0.010
26.100,-0.025
26.104,0.000
26.108,0.000
26.112,0.000
26.116,-0.010
26.120,-0.035
26.124,-0.035
26.128,-0.010
26.132,0.000
26.136,0.000
26.140,0.025
26.144,0.055
26.148,0.080
26.152,0.100
26.156,0.120
26.160,0.115
26.164,0.125
26.168,0.150
26.172,0.155
26.176,0.165
26.180,0.165
26.184,0.110
26.188,0.070
26.192,0.030
26.196,-0.005
26.200,-0.020
26.204,-0.045
26.208,-0.050
26.212,-0.055
26.216,-0.060
26.220,-0.035
26.224,-0.060
26.228,-0.065
26.232,-0.055
26.236,-0.065
26.240,-0.070
26.244,-0.065
26.248,-0.075
26.252,-0.060
26.256,-0.070
26.260,-0.080
26.264,-0.085
26.268,-0.065
26.272,-0.085
26.276,-0.095
26.280,-0.085
26.284,-0.070
26.288,-0.080
26.292,-0.075
26.296,-0.095
26.300,-0.125
26.304,-0.180
26.308,-0.225
26.312,-0.205
26.316,-0.020
26.320,0.405
26.324,0.990
26.328,1.455
26.332,1.300
26.336,0.590
26.340,0.095
26.344,-0.100
26.348,-0.400
26.352,-0.720
26.356,-0.815
26.360,-0.740
26.364,-0.630
26.368,-0.440
26.372,-0.245
26.376,-0.100
26.380,-0.090
26.384,-0.095
26.388,-0.115
26.392,-0.120
26.396,-0.110
26.400,-0.115
26.404,-0.105
26.408,-0.090
26.412,-0.100
26.416,-0.105
26.420,-0.105
26.424,-0.090
26.428,-0.095
26.432,-0.110
26.436,-0.110
26.440,-0.120
26.444,-0.105
26.448,-0.085
26.452,-0.065
26.456,-0.065
26.460,-0.075
26.464,-0.105
26.468,-0.100
26.472,-0.085
26.476,-0.085
26.480,-0.080
26.484,-0.070
26.488,-0.050
26.492,-0.070
26.496,-0.055
26.500,-0.055
26.504,-0.055
26.508,-0.040
26.512,-0.035
26.516,-0.040
26.520,-0.015
26.524,-0.015
26.528,-0.015
26.532,-0.020
26.536,0.000
26.540,0.000
26.544,0.005
26.548,-0.010
26.552,0.015
26.556,0.045
26.560,0.065
26.564,0.055
26.568,0.060
26.572,0.070
26.576,0.085
26.580,0.080
26.584,0.065
26.588,0.075
26.592,0.085
26.596,0.095
26.600,0.105
26.604,0.090
26.608,0.085
26.612,0.100
26.616,0.105
26.620,0.085
26.624,0.095
26.628,0.100
26.632,0.085
26.636,0.075
26.640,0.070
26.644,0.055
26.648,0.075
26.652,0.090
26.656,0.070
26.660,0.065
26.664,0.070
26.668,0.045
26.672,0.020
26.676,0.000
26.680,-0.020
26.684,-0.050
26.688,-0.040
26.692,-0.060
26.696,-0.075
26.700,-0.080
26.704,-0.085
26.708,-0.075
26.712,-0.060
26.716,-0.060
26.720,-0.060
26.724,-0.070
26.728,-0.055
26.732,-0.045
26.736,-0.060
26.740,-0.050
26.744,-0.035
26.748,-0.055
26.752,-0.050
26.756,-0.040
26.760,-0.045
26.764,-0.040
26.768,-0.045
26.772,-0.015
26.776,-0.020
26.780,0.000
26.784,-0.010
26.788,0.005
26.792,-0.010
26.796,-0.035
26.800,-0.040
26.804,-0.040
26.808,-0.040
26.812,-0.040
26.816,-0.030
26.820,-0.035
26.824,-0.010
26.828,-0.025
26.832,-0.050
26.836,-0.040
26.840,-0.055
26.844,-0.050
26.848,-0.075
26.852,-0.050
26.856,-0.060
26.860,-0.050
26.864,-0.055
26.868,-0.060
26.872,-0.060
26.876,-0.060
26.880,-0.055
26.884,-0.070
26.888,-0.075
26.892,-0.070
26.896,-0.075
26.900,-0.080
26.904,-0.055
26.908,-0.075
26.912,-0.080
26.916,-0.080
26.920,-0.080
26.924,-0.075
26.928,-0.090
26.932,-0.065
26.936,-0.060
26.940,-0.060
26.944,-0.080
26.948,-0.080
26.952,-0.070
26.956,-0.060
26.960,-0.080
26.964,-0.090
26.968,-0.085
26.972,-0.080
26.976,-0.110
26.980,-0.090
26.984,-0.095
26.988,-0.105
26.992,-0.080
26.996,-0.095
27.000,-0.105
27.004,-0.080
27.008,-0.090
27.012,-0.080
27.016,-0.100
27.020,-0.090
27.024,-0.090
27.028,-0.085
27.032,-0.090
27.036,-0.100
27.040,-0.110
27.044,-0.105
27.048,-0.095
27.052,-0.090
27.056,-0.090
27.060,-0.085
27.064,-0.095
27.068,-0.085
27.072,-0.100
27.076,-0.100
27.080,-0.105
27.084,-0.115
27.088,-0.125
27.092,-0.095
27.096,-0.090
27.100,-0.095
27.104,-0.085
27.108,-0.085
27.112,-0.080
27.116,-0.060
27.120,-0.060
27.124,-0.045
27.128,-0.035
27.132,0.010
27.136,0.025
27.140,0.040
27.144,0.030
27.148,0.015
27.152,0.030
27.156,0.025
27.160,0.035
27.164,0.045
27.168,0.025
27.172,0.005
27.176,-0.045
27.180,-0.055
27.184,-0.115
27.188,-0.125
27.192,-0.145
27.196,-0.110
27.200,-0.115
27.204,-0.115
27.208,-0.100
27.212,-0.130
27.216,-0.145
27.220,-0.155
27.224,-0.170
27.228,-0.150
27.232,-0.175
27.236,-0.155
27.240,-0.180
27.244,-0.170
27.248,-0.165
27.252,-0.160
27.256,-0.160
27.260,-0.140
27.264,-0.175
27.268,-0.195
27.272,-0.205
27.276,-0.210
27.280,-0.260
27.284,-0.305
27.288,-0.330
27.292,-0.240
27.296,0.030
27.300,0.545
27.304,1.145
27.308,1.475
27.312,1.080
27.316,0.350
27.320,-0.030
27.324,-0.150
27.328,-0.265
27.332,-0.550
27.336,-0.820
27.340,-0.800
27.344,-0.635
27.348,-0.420
27.352,-0.280
27.356,-0.250
27.360,-0.240
27.364,-0.240
27.368,-0.250
27.372,-0.235
27.376,-0.260
27.380,-0.240
27.384,-0.235
27.388,-0.230
27.392,-0.230
27.396,-0.235
27.400,-0.240
27.404,-0.235
27.408,-0.235
27.412,-0.245
27.416,-0.240
27.420,-0.235
27.424,-0.230
27.428,-0.235
27.432,-0.250
27.436,-0.235
27.440,-0.225
27.444,-0.210
27.448,-0.215
27.452,-0.205
27.456,-0.215
27.460,-0.210
27.464,-0.235
27.468,-0.205
27.472,-0.205
27.476,-0.215
27.480,-0.210
27.484,-0.210
27.488,-0.195
27.492,-0.185
27.496,-0.165
27.500,-0.135
27.504,-0.165
27.508,-0.170
27.512,-0.150
27.516,-0.145
27.520,-0.145
27.524,-0.125
27.528,-0.115
27.532,-0.105
27.536,-0.070
27.540,-0.050
27.544,-0.040
27.548,-0.060
27.552,-0.050
27.556,-0.035
27.560,-0.035
27.564,-0.045
27.568,-0.025
27.572,0.000
27.576,-0.005
27.580,-0.020
27.584,-0.040
27.588,-0.020
27.592,-0.030
27.596,-0.015
27.600,-0.010
27.604,0.000
27.608,0.005
27.612,0.005
27.616,0.010
27.620,-0.010
27.624,-0.005
27.628,0.000
27.632,-0.010
27.636,-0.005
27.640,0.000
27.644,0.000
27.648,-0.020
27.652,-0.035
27.656,-0.065
27.660,-0.060
27.664,-0.095
27.668,-0.125
27.672,-0.140
27.676,-0.140
27.680,-0.120
27.684,-0.140
27.688,-0.135
27.692,-0.125
27.696,-0.135
27.700,-0.120
27.704,-0.130
27.708,-0.135
27.712,-0.140
27.716,-0.120
27.720,-0.125
27.724,-0.110
27.728,-0.090
27.732,-0.105
27.736,-0.115
27.740,-0.125
27.744,-0.110
27.748,-0.105
27.752,-0.110
27.756,-0.090
27.760,-0.085
27.764,-0.080
27.768,-0.070
27.772,-0.080
27.776,-0.070
27.780,-0.100
27.784,-0.105
27.788,-0.095
27.792,-0.075
27.796,-0.095
27.800,-0.095
27.804,-0.080
27.808,-0.095
27.812,-0.090
27.816,-0.105
27.820,-0.105
27.824,-0.105
27.828,-0.105
27.832,-0.095
27.836,-0.105
27.840,-0.125
27.844,-0.130
27.848,-0.140
27.852,-0.130
27.856,-0.135
27.860,-0.120
27.864,-0.120
27.868,-0.115
27.872,-0.110
27.876,-0.135
27.880,-0.150
27.884,-0.140
27.888,-0.130
27.892,-0.140
27.896,-0.125
27.900,-0.120
27.904,-0.120
27.908,-0.140
27.912,-0.120
27.916,-0.130
27.920,-0.135
27.924,-0.130
27.928,-0.115
27.932,-0.125
27.936,-0.135
27.940,-0.140
27.944,-0.110
27.948,-0.100
27.952,-0.100
27.956,-0.060
27.960,0.000
27.964,0.025
27.968,0.010
27.972,0.000
27.976,0.000
27.980,0.020
27.984,0.020
27.988,-0.005
27.992,-0.020
27.996,-0.045
28.000,-0.070
28.004,-0.115
28.008,-0.170
28.012,-0.170
28.016,-0.170
28.020,-0.140
28.024,-0.120
28.028,-0.150
28.032,-0.185
28.036,-0.200
28.040,-0.195
28.044,-0.195
28.048,-0.205
28.052,-0.195
28.056,-0.200
28.060,-0.200
28.064,-0.205
28.068,-0.195
28.072,-0.195
28.076,-0.205
28.080,-0.200
28.084,-0.200
28.088,-0.230
28.092,-0.220
28.096,-0.215
28.100,-0.225
28.104,-0.255
28.108,-0.290
28.112,-0.345
28.116,-0.350
28.120,-0.300
28.124,-0.100
28.128,0.285
28.132,0.840
28.136,1.210
28.140,0.985
28.144,0.360
28.148,-0.010
28.152,-0.220
28.156,-0.565
28.160,-0.860
28.164,-0.865
28.168,-0.760
28.172,-0.615
28.176,-0.440
28.180,-0.310
28.184,-0.250
28.188,-0.245
28.192,-0.240
28.196,-0.245
28.200,-0.240
28.204,-0.245
28.208,-0.220
28.212,-0.210
28.216,-0.220
28.220,-0.200
28.224,-0.210
28.228,-0.235
28.232,-0.240
28.236,-0.245
28.240,-0.230
28.244,-0.225
28.248,-0.215
28.252,-0.225
28.256,-0.240
28.260,-0.245
28.264,-0.230
28.268,-0.230
28.272,-0.215
28.276,-0.215
28.280,-0.220
28.284,-0.210
28.288,-0.190
28.292,-0.185
28.296,-0.190
28.300,-0.200
28.304,-0.205
28.308,-0.200
28.312,-0.175
28.316,-0.175
28.320,-0.180
28.324,-0.165
28.328,-0.145
28.332,-0.145
28.336,-0.115
28.340,-0.105
28.344,-0.110
28.348,-0.100
28.352,-0.090
28.356,-0.090
28.360,-0.080
28.364,-0.050
28.368,-0.055
28.372,-0.065
28.376,-0.045
28.380,-0.030
28.384,-0.035
28.388,-0.020
28.392,-0.030
28.396,-0.020
28.400,-0.010
28.404,-0.020
28.408,-0.020
28.412,-0.035
28.416,-0.015
28.420,-0.025
28.424,-0.005
28.428,-0.010
28.432,-0.020
28.436,-0.015
28.440,-0.010
28.444,-0.005
28.448,0.000
28.452,0.015
28.456,0.010
28.460,-0.010
28.464,-0.040
28.468,-0.055
28.472,-0.065
28.476,-0.060
28.480,-0.070
28.484,-0.065
28.488,-0.060
28.492,-0.095
28.496,-0.120
28.500,-0.135
28.504,-0.100
28.508,-0.115
28.512,-0.135
28.516,-0.125
28.520,-0.120
28.524,-0.120
28.528,-0.120
28.532,-0.120
28.536,-0.125
28.540,-0.110
28.544,-0.105
28.548,-0.080
28.552,-0.105
28.556,-0.110
28.560,-0.105
28.564,-0.105
28.568,-0.095
28.572,-0.090
28.576,-0.095
28.580,-0.085
28.584,-0.085
28.588,-0.075
28.592,-0.085
28.596,-0.105
28.600,-0.080
28.604,-0.080
28.608,-0.080
28.612,-0.085
28.616,-0.095
28.620,-0.095
28.624,-0.095
28.628,-0.090
28.632,-0.090
28.636,-0.105
28.640,-0.090
28.644,-0.100
28.648,-0.115
28.652,-0.095
28.656,-0.095
28.660,-0.085
28.664,-0.105
28.668,-0.100
28.672,-0.110
28.676,-0.125
28.680,-0.120
28.684,-0.105
28.688,-0.110
28.692,-0.110
28.696,-0.125
28.700,-0.125
28.704,-0.105
28.708,-0.115
28.712,-0.150
28.716,-0.130
28.720,-0.105
28.724,-0.115
28.728,-0.130
28.732,-0.120
28.736,-0.105
28.740,-0.100
28.744,-0.115
28.748,-0.085
28.752,-0.105
28.756,-0.100
28.760,-0.105
28.764,-0.135
28.768,-0.120
28.772,-0.075
28.776,-0.055
28.780,-0.080
28.784,-0.115
28.788,-0.115
28.792,-0.125
28.796,-0.090
28.800,-0.105
28.804,-0.095
28.808,-0.100
28.812,-0.100
28.816,-0.110
28.820,-0.110
28.824,-0.100
28.828,-0.100
28.832,-0.105
28.836,-0.095
28.840,-0.100
28.844,-0.100
28.848,-0.080
28.852,-0.090
28.856,-0.095
28.860,-0.075
28.864,-0.090
28.868,-0.100
28.872,-0.110
28.876,-0.090
28.880,-0.095
28.884,-0.080
28.888,-0.075
28.892,-0.080
28.896,-0.060
28.900,-0.075
28.904,-0.075
28.908,-0.075
28.912,-0.065
28.916,-0.065
28.920,-0.060
28.924,-0.070
28.928,-0.095
28.932,-0.100
28.936,-0.080
28.940,-0.080
28.944,-0.095
28.948,-0.080
28.952,-0.055
28.956,-0.055
28.960,-0.070
28.964,-0.060
28.968,-0.040
28.972,-0.015
28.976,0.020
28.980,0.055
28.984,0.075
28.988,0.050
28.992,0.035
28.996,0.040
29.000,0.060
29.004,0.070
29.008,0.065
29.012,0.060
29.016,0.035
29.020,-0.010
29.024,-0.035
29.028,-0.065
29.032,-0.110
29.036,-0.130
29.040,-0.115
29.044,-0.080
29.048,-0.070
29.052,-0.060
29.056,-0.080
29.060,-0.100
29.064,-0.105
29.068,-0.105
29.072,-0.095
29.076,-0.095
29.080,-0.095
29.084,-0.110
29.088,-0.110
29.092,-0.115
29.096,-0.125
29.100,-0.120
29.104,-0.135
29.108,-0.130
29.112,-0.135
29.116,-0.165
29.120,-0.220
29.124,-0.265
29.128,-0.245
29.132,-0.170
29.136,-0.020
29.140,0.350
29.144,0.940
29.148,1.405
29.152,1.245
29.156,0.570
29.160,0.095
29.164,-0.090
29.168,-0.405
29.172,-0.720
29.176,-0.755
29.180,-0.640
29.184,-0.435
29.188,-0.225
29.192,-0.120
29.196,-0.090
29.200,-0.115
29.204,-0.130
29.208,-0.155
29.212,-0.140
29.216,-0.125
29.220,-0.125
29.224,-0.120
29.228,-0.100
29.232,-0.120
29.236,-0.120
29.240,-0.110
29.244,-0.115
29.248,-0.125
29.252,-0.155
29.256,-0.170
29.260,-0.135
29.264,-0.115
29.268,-0.130
29.272,-0.120
29.276,-0.120
29.280,-0.120
29.284,-0.115
29.288,-0.105
29.292,-0.100
29.296,-0.115
29.300,-0.105
29.304,-0.085
29.308,-0.100
29.312,-0.095
29.316,-0.080
29.320,-0.090
29.324,-0.100
29.328,-0.085
29.332,-0.085
29.336,-0.055
29.340,-0.045
29.344,-0.025
29.348,-0.025
29.352,-0.010
29.356,0.000
29.360,-0.005
29.364,0.000
29.368,0.020
29.372,0.005
29.376,0.000
29.380,0.030
29.384,0.030
29.388,0.020
29.392,0.040
29.396,0.075
29.400,0.065
29.404,0.075
29.408,0.080
29.412,0.090
29.416,0.095
29.420,0.105
29.424,0.080
29.428,0.085
29.432,0.120
29.436,0.100
29.440,0.100
29.444,0.110
29.448,0.115
29.452,0.115
29.456,0.135
29.460,0.165
29.464,0.145
29.468,0.140
29.472,0.120
29.476,0.115
29.480,0.120
29.484,0.120
29.488,0.090
29.492,0.080
29.496,0.065
29.500,0.050
29.504,0.035
29.508,0.010
29.512,-0.020
29.516,0.000
29.520,-0.025
29.524,-0.040
29.528,-0.035
29.532,-0.015
29.536,-0.035
29.540,-0.065
29.544,-0.030
29.548,-0.020
29.552,-0.025
29.556,-0.050
29.560,-0.050
29.564,-0.015
29.568,0.000
29.572,-0.010
29.576,-0.010
29.580,0.000
29.584,-0.005
29.588,0.020
29.592,0.015
29.596,0.005
29.600,0.020
29.604,0.020
29.608,0.025
29.612,0.025
29.616,0.030
29.620,0.045
29.624,0.040
29.628,0.035
29.632,0.020
29.636,0.015
29.640,-0.020
29.644,-0.015
29.648,-0.010
29.652,-0.040
29.656,0.000
29.660,-0.010
29.664,0.000
29.668,-0.005
29.672,-0.005
29.676,0.000
29.680,-0.020
29.684,-0.030
29.688,-0.040
29.692,-0.025
29.696,-0.035
29.700,-0.050
29.704,-0.035
29.708,-0.020
29.712,-0.040
29.716,-0.035
29.720,-0.055
29.724,-0.070
29.728,-0.070
29.732,-0.075
29.736,-0.055
29.740,-0.065
29.744,-0.070
29.748,-0.060
29.752,-0.065
29.756,-0.065
29.760,-0.060
29.764,-0.080
29.768,-0.065
29.772,-0.055
29.776,-0.050
29.780,-0.030
29.784,-0.005
29.788,-0.020
29.792,0.000
29.796,0.000
29.800,0.020
29.804,0.060
29.808,0.075
29.812,0.070
29.816,0.065
29.820,0.090
29.824,0.115
29.828,0.050
29.832,0.035
29.836,0.005
29.840,-0.045
29.844,-0.065
29.848,-0.065
29.852,-0.095
29.856,-0.110
29.860,-0.085
29.864,-0.060
29.868,-0.090
29.872,-0.090
29.876,-0.105
29.880,-0.115
29.884,-0.100
29.888,-0.110
29.892,-0.120
29.896,-0.115
29.900,-0.115
29.904,-0.105
29.908,-0.095
29.912,-0.095
29.916,-0.110
29.920,-0.125
29.924,-0.135
29.928,-0.130
29.932,-0.140
29.936,-0.130
29.940,-0.130
29.944,-0.135
29.948,-0.180
29.952,-0.250
29.956,-0.290
29.960,-0.210
29.964,0.010
29.968,0.420
29.972,0.895
29.976,1.335
29.980,1.590
29.984,1.295
29.988,0.555
29.992,0.090
29.996,-0.150
30.000,-0.515
30.004,-0.785
30.008,-0.785
30.012,-0.610
30.016,-0.405
30.020,-0.230
30.024,-0.170
30.028,-0.145
30.032,-0.160
30.036,-0.165
30.040,-0.150
30.044,-0.155
30.048,-0.155
30.052,-0.160
30.056,-0.135
30.060,-0.145
30.064,-0.120
30.068,-0.125
30.072,-0.160
30.076,-0.160
30.080,-0.160
30.084,-0.120
30.088,-0.130
30.092,-0.120
30.096,-0.130
30.100,-0.130
30.104,-0.135
30.108,-0.150
30.112,-0.145
30.116,-0.120
30.120,-0.140
30.124,-0.120
30.128,-0.110
30.132,-0.120
30.136,-0.115
30.140,-0.115
30.144,-0.115
30.148,-0.125
30.152,-0.120
30.156,-0.095
30.160,-0.090
30.164,-0.085
30.168,-0.080
30.172,-0.065
30.176,-0.065
30.180,-0.040
30.184,-0.060
30.188,-0.045
30.192,-0.035
30.196,-0.005
30.200,-0.010
30.204,0.015
30.208,0.000
30.212,0.025
30.216,0.040
30.220,0.040
30.224,0.030
30.228,0.020
30.232,0.030
30.236,0.025
30.240,0.050
30.244,0.050
30.248,0.035
30.252,0.025
30.256,0.035
30.260,0.045
30.264,0.050
30.268,0.045
30.272,0.050
30.276,0.055
30.280,0.060
30.284,0.035
30.288,0.035
30.292,0.050
30.296,0.040
30.300,0.035
30.304,0.030
30.308,0.005
30.312,0.000
30.316,0.000
30.320,0.000
30.324,-0.020
30.328,-0.030
30.332,-0.030
30.336,-0.050
30.340,-0.075
30.344,-0.080
30.348,-0.105
30.352,-0.090
30.356,-0.095
30.360,-0.080
30.364,-0.110
30.368,-0.090
30.372,-0.090
30.376,-0.100
30.380,-0.095
30.384,-0.095
30.388,-0.080
30.392,-0.080
30.396,-0.080
30.400,-0.065
30.404,-0.060
30.408,-0.065
30.412,-0.050
30.416,-0.060
30.420,-0.080
30.424,-0.075
30.428,-0.055
30.432,-0.065
30.436,-0.045
30.440,-0.060
30.444,-0.045
30.448,-0.060
30.452,-0.070
30.456,-0.060
30.460,-0.090
30.464,-0.080
30.468,-0.080
30.472,-0.085
30.476,-0.080
30.480,-0.085
30.484,-0.070
30.488,-0.080
30.492,-0.085
30.496,-0.090
30.500,-0.085
30.504,-0.110
30.508,-0.110
30.512,-0.110
30.516,-0.105
30.520,-0.110
30.524,-0.120
30.528,-0.110
30.532,-0.130
30.536,-0.090
30.540,-0.105
30.544,-0.120
30.548,-0.140
30.552,-0.130
30.556,-0.130
30.560,-0.115
30.564,-0.085
30.568,-0.100
30.572,-0.125
30.576,-0.160
30.580,-0.140
30.584,-0.140
30.588,-0.150
30.592,-0.140
30.596,-0.120
30.600,-0.145
30.604,-0.130
30.608,-0.130
30.612,-0.140
30.616,-0.145
30.620,-0.135
30.624,-0.120
30.628,-0.130
30.632,-0.140
30.636,-0.140
30.640,-0.135
30.644,-0.135
30.648,-0.120
30.652,-0.140
30.656,-0.140
30.660,-0.140
30.664,-0.135
30.668,-0.150
30.672,-0.140
30.676,-0.155
30.680,-0.150
30.684,-0.135
30.688,-0.145
30.692,-0.155
30.696,-0.135
30.700,-0.125
30.704,-0.125
30.708,-0.150
30.712,-0.135
30.716,-0.140
30.720,-0.135
30.724,-0.150
30.728,-0.155
30.732,-0.175
30.736,-0.150
30.740,-0.150
30.744,-0.140
30.748,-0.135
30.752,-0.150
30.756,-0.150
30.760,-0.130
30.764,-0.140
30.768,-0.145
30.772,-0.145
30.776,-0.140
30.780,-0.130
30.784,-0.125
30.788,-0.150
30.792,-0.150
30.796,-0.160
30.800,-0.160
30.804,-0.150
30.808,-0.130
30.812,-0.140
30.816,-0.135
30.820,-0.115
30.824,-0.135
30.828,-0.160
30.832,-0.130
30.836,-0.105
30.840,-0.040
30.844,-0.010
30.848,0.000
30.852,-0.030
30.856,-0.020
30.860,-0.020
30.864,-0.010
30.868,-0.015
30.872,-0.030
30.876,-0.080
30.880,-0.090
30.884,-0.125
30.888,-0.150
30.892,-0.170
30.896,-0.160
30.900,-0.165
30.904,-0.150
30.908,-0.140
30.912,-0.145
30.916,-0.155
30.920,-0.175
30.924,-0.200
30.928,-0.185
30.932,-0.190
30.936,-0.185
30.940,-0.185
30.944,-0.170
30.948,-0.170
30.952,-0.165
30.956,-0.180
30.960,-0.180
30.964,-0.180
30.968,-0.190
30.972,-0.250
30.976,-0.330
30.980,-0.355
30.984,-0.340
30.988,-0.255
30.992,-0.050
30.996,0.375
31.000,0.955
31.004,1.245
31.008,0.930
31.012,0.295
31.016,-0.025
31.020,-0.270
31.024,-0.680
31.028,-0.925
31.032,-0.855
31.036,-0.665
31.040,-0.490
31.044,-0.335
31.048,-0.235
31.052,-0.205
31.056,-0.200
31.060,-0.220
31.064,-0.225
31.068,-0.220
31.072,-0.225
31.076,-0.225
31.080,-0.240
31.084,-0.235
31.088,-0.220
31.092,-0.200
31.096,-0.205
31.100,-0.230
31.104,-0.205
31.108,-0.210
31.112,-0.225
31.116,-0.190
31.120,-0.210
31.124,-0.210
31.128,-0.220
31.132,-0.210
31.136,-0.215
31.140,-0.205
31.144,-0.185
31.148,-0.190
31.152,-0.215
31.156,-0.210
31.160,-0.210
31.164,-0.190
31.168,-0.190
31.172,-0.180
31.176,-0.190
31.180,-0.170
31.184,-0.155
31.188,-0.165
31.192,-0.150
31.196,-0.150
31.200,-0.130
31.204,-0.155
31.208,-0.145
31.212,-0.130
31.216,-0.100
31.220,-0.090
31.224,-0.070
31.228,-0.080
31.232,-0.060
31.236,-0.050
31.240,-0.050
31.244,-0.030
31.248,-0.030
31.252,-0.015
31.256,-0.020
31.260,-0.030
31.264,-0.025
31.268,-0.005
31.272,0.010
31.276,0.015
31.280,-0.005
31.284,-0.015
31.288,0.000
31.292,0.005
31.296,0.005
31.300,0.020
31.304,0.020
31.308,0.015
31.312,0.015
31.316,0.035
31.320,0.040
31.324,0.050
31.328,0.030
31.332,0.025
31.336,0.000
31.340,0.000
31.344,0.000
31.348,0.000
31.352,-0.015
31.356,-0.030
31.360,-0.075
31.364,-0.080
31.368,-0.095
31.372,-0.080
31.376,-0.110
31.380,-0.105
31.384,-0.115
31.388,-0.130
31.392,-0.155
31.396,-0.135
31.400,-0.120
31.404,-0.140
31.408,-0.135
31.412,-0.115
31.416,-0.090
31.420,-0.105
31.424,-0.105
31.428,-0.100
31.432,-0.110
31.436,-0.110
31.440,-0.105
31.444,-0.095
31.448,-0.075
31.452,-0.080
31.456,-0.100
31.460,-0.100
31.464,-0.100
31.468,-0.090
31.472,-0.090
31.476,-0.085
31.480,-0.110
31.484,-0.130
31.488,-0.125
31.492,-0.085
31.496,-0.110
31.500,-0.120
31.504,-0.110
31.508,-0.105
31.512,-0.130
31.516,-0.135
31.520,-0.140
31.524,-0.140
31.528,-0.145
31.532,-0.140
31.536,-0.165
31.540,-0.160
31.544,-0.190
31.548,-0.170
31.552,-0.165
31.556,-0.160
31.560,-0.175
31.564,-0.190
31.568,-0.175
31.572,-0.190
31.576,-0.195
31.580,-0.190
31.584,-0.170
31.588,-0.185
31.592,-0.170
31.596,-0.170
31.600,-0.175
31.604,-0.195
31.608,-0.175
31.612,-0.165
31.616,-0.165
31.620,-0.170
31.624,-0.175
31.628,-0.160
31.632,-0.170
31.636,-0.210
31.640,-0.205
31.644,-0.195
31.648,-0.220
31.652,-0.180
31.656,-0.185
31.660,-0.200
31.664,-0.180
31.668,-0.155
31.672,-0.190
31.676,-0.180
31.680,-0.165
31.684,-0.140
31.688,-0.110
31.692,-0.065
31.696,-0.050
31.700,-0.030
31.704,-0.045
31.708,-0.050
31.712,-0.050
31.716,-0.020
31.720,-0.035
31.724,-0.075
31.728,-0.105
31.732,-0.150
31.736,-0.210
31.740,-0.225
31.744,-0.245
31.748,-0.225
31.752,-0.205
31.756,-0.215
31.760,-0.215
31.764,-0.220
31.768,-0.220
31.772,-0.225
31.776,-0.245
31.780,-0.250
31.784,-0.260
31.788,-0.255
31.792,-0.245
31.796,-0.250
31.800,-0.245
31.804,-0.240
31.808,-0.255
31.812,-0.255
31.816,-0.235
31.820,-0.235
31.824,-0.255
31.828,-0.265
31.832,-0.260
31.836,-0.270
31.840,-0.305
31.844,-0.365
31.848,-0.380
31.852,-0.300
31.856,-0.030
31.860,0.455
31.864,1.015
31.868,1.355
31.872,1.175
31.876,0.675
31.880,0.180
31.884,-0.115
31.888,-0.335
31.892,-0.715
31.896,-0.920
31.900,-0.855
31.904,-0.665
31.908,-0.450
31.912,-0.305
31.916,-0.275
31.920,-0.280
31.924,-0.250
31.928,-0.255
31.932,-0.275
31.936,-0.275
31.940,-0.275
31.944,-0.245
31.948,-0.235
31.952,-0.240
31.956,-0.225
31.960,-0.240
31.964,-0.255
31.968,-0.245
31.972,-0.240
31.976,-0.240
31.980,-0.240
31.984,-0.255
31.988,-0.270
31.992,-0.275
31.996,-0.260
32.000,-0.240
32.004,-0.220
32.008,-0.220
32.012,-0.255
32.016,-0.235
32.020,-0.240
32.024,-0.235
32.028,-0.230
32.032,-0.215
32.036,-0.220
32.040,-0.220
32.044,-0.210
32.048,-0.200
32.052,-0.195
32.056,-0.185
32.060,-0.170
32.064,-0.170
32.068,-0.180
32.072,-0.150
32.076,-0.155
32.080,-0.150
32.084,-0.145
32.088,-0.140
32.092,-0.125
32.096,-0.110
32.100,-0.090
32.104,-0.065
32.108,-0.095
32.112,-0.070
32.116,-0.070
32.120,-0.060
32.124,-0.045
32.128,-0.060
32.132,-0.065
32.136,-0.065
32.140,-0.065
32.144,-0.040
32.148,-0.015
32.152,-0.015
32.156,-0.045
32.160,-0.020
32.164,0.000
32.168,-0.025
32.172,-0.030
32.176,-0.030
32.180,-0.045
32.184,-0.040
32.188,-0.040
32.192,-0.015
32.196,-0.025
32.200,-0.070
32.204,-0.080
32.208,-0.095
32.212,-0.100
32.216,-0.120
32.220,-0.135
32.224,-0.145
32.228,-0.135
32.232,-0.150
32.236,-0.140
32.240,-0.160
32.244,-0.180
32.248,-0.170
32.252,-0.160
32.256,-0.170
32.260,-0.175
32.264,-0.175
32.268,-0.165
32.272,-0.175
32.276,-0.185
32.280,-0.155
32.284,-0.155
32.288,-0.160
32.292,-0.150
32.296,-0.160
32.300,-0.155
32.304,-0.150
32.308,-0.145
32.312,-0.135
32.316,-0.145
32.320,-0.135
32.324,-0.130
32.328,-0.135
32.332,-0.135
32.336,-0.125
32.340,-0.145
32.344,-0.125
32.348,-0.110
32.352,-0.115
32.356,-0.120
32.360,-0.155
32.364,-0.125
32.368,-0.155
32.372,-0.180
32.376,-0.175
32.380,-0.190
32.384,-0.185
32.388,-0.175
32.392,-0.175
32.396,-0.175
32.400,-0.195
32.404,-0.170
32.408,-0.175
32.412,-0.165
32.416,-0.170
32.420,-0.185
32.424,-0.205
32.428,-0.215
32.432,-0.220
32.436,-0.195
32.440,-0.185
32.444,-0.180
32.448,-0.190
32.452,-0.215
32.456,-0.225
32.460,-0.225
32.464,-0.245
32.468,-0.225
32.472,-0.215
32.476,-0.215
32.480,-0.215
32.484,-0.210
32.488,-0.215
32.492,-0.235
32.496,-0.230
32.500,-0.220
32.504,-0.215
32.508,-0.210
32.512,-0.190
32.516,-0.215
32.520,-0.215
32.524,-0.225
32.528,-0.235
32.532,-0.255
32.536,-0.230
32.540,-0.235
32.544,-0.240
32.548,-0.220
32.552,-0.225
32.556,-0.220
32.560,-0.215
32.564,-0.210
32.568,-0.200
32.572,-0.225
32.576,-0.230
32.580,-0.225
32.584,-0.200
32.588,-0.245
32.592,-0.240
32.596,-0.225
32.600,-0.200
32.604,-0.220
32.608,-0.205
32.612,-0.220
32.616,-0.215
32.620,-0.255
32.624,-0.245
32.628,-0.240
32.632,-0.220
32.636,-0.230
32.640,-0.210
32.644,-0.205
32.648,-0.205
32.652,-0.200
32.656,-0.225
32.660,-0.220
32.664,-0.230
32.668,-0.230
32.672,-0.220
32.676,-0.225
32.680,-0.225
32.684,-0.190
32.688,-0.150
32.692,-0.115
32.696,-0.105
32.700,-0.120
32.704,-0.110
32.708,-0.095
32.712,-0.115
32.716,-0.125
32.720,-0.140
32.724,-0.180
32.728,-0.215
32.732,-0.205
32.736,-0.240
32.740,-0.240
32.744,-0.240
32.748,-0.225
32.752,-0.230
32.756,-0.215
32.760,-0.230
32.764,-0.250
32.768,-0.250
32.772,-0.260
32.776,-0.275
32.780,-0.260
32.784,-0.270
32.788,-0.260
32.792,-0.270
32.796,-0.285
32.800,-0.275
32.804,-0.270
32.808,-0.265
32.812,-0.295
32.816,-0.315
32.820,-0.335
32.824,-0.415
32.828,-0.430
32.832,-0.400
32.836,-0.255
32.840,0.105
32.844,0.725
32.848,1.275
32.852,1.360
32.856,0.735
32.860,0.095
32.864,-0.240
32.868,-0.505
32.872,-0.830
32.876,-0.965
32.880,-0.920
32.884,-0.810
32.888,-0.675
32.892,-0.490
32.896,-0.340
32.900,-0.320
32.904,-0.320
32.908,-0.300
32.912,-0.300
32.916,-0.315
32.920,-0.295
32.924,-0.290
32.928,-0.300
32.932,-0.300
32.936,-0.295
32.940,-0.280
32.944,-0.295
32.948,-0.290
32.952,-0.285
32.956,-0.280
32.960,-0.285
32.964,-0.295
32.968,-0.295
32.972,-0.295
32.976,-0.305
32.980,-0.295
32.984,-0.290
32.988,-0.270
32.992,-0.290
32.996,-0.275
33.000,-0.260
33.004,-0.260
33.008,-0.270
33.012,-0.265
33.016,-0.260
33.020,-0.255
33.024,-0.240
33.028,-0.255
33.032,-0.235
33.036,-0.220
33.040,-0.230
33.044,-0.215
33.048,-0.210
33.052,-0.205
33.056,-0.215
33.060,-0.205
33.064,-0.180
33.068,-0.160
33.072,-0.165
33.076,-0.155
33.080,-0.165
33.084,-0.165
33.088,-0.135
33.092,-0.125
33.096,-0.115
33.100,-0.110
33.104,-0.105
33.108,-0.095
33.112,-0.095
33.116,-0.105
33.120,-0.105
33.124,-0.090
33.128,-0.090
33.132,-0.090
33.136,-0.120
33.140,-0.115
33.144,-0.105
33.148,-0.080
33.152,-0.065
33.156,-0.075
33.160,-0.090
33.164,-0.090
33.168,-0.075
33.172,-0.105
33.176,-0.080
33.180,-0.100
33.184,-0.110
33.188,-0.125
33.192,-0.135
33.196,-0.145
33.200,-0.160
33.204,-0.170
33.208,-0.185
33.212,-0.185
33.216,-0.205
33.220,-0.200
33.224,-0.195
33.228,-0.195
33.232,-0.220
33.236,-0.225
33.240,-0.210
33.244,-0.215
33.248,-0.220
33.252,-0.210
33.256,-0.215
33.260,-0.220
33.264,-0.205
33.268,-0.190
33.272,-0.205
33.276,-0.195
33.280,-0.185
33.284,-0.195
33.288,-0.190
33.292,-0.190
33.296,-0.195
33.300,-0.190
33.304,-0.175
33.308,-0.180
33.312,-0.170
33.316,-0.175
33.320,-0.165
33.324,-0.160
33.328,-0.165
33.332,-0.180
33.336,-0.195
33.340,-0.190
33.344,-0.195
33.348,-0.195
33.352,-0.185
33.356,-0.185
33.360,-0.165
33.364,-0.185
33.368,-0.200
33.372,-0.210
33.376,-0.235
33.380,-0.225
33.384,-0.240
33.388,-0.250
33.392,-0.245
33.396,-0.235
33.400,-0.230
33.404,-0.250
33.408,-0.245
33.412,-0.255
33.416,-0.260
33.420,-0.245
33.424,-0.260
33.428,-0.255
33.432,-0.245
33.436,-0.260
33.440,-0.280
33.444,-0.270
33.448,-0.260
33.452,-0.250
33.456,-0.235
33.460,-0.265
33.464,-0.265
33.468,-0.275
33.472,-0.295
33.476,-0.290
33.480,-0.255
33.484,-0.260
33.488,-0.270
33.492,-0.275
33.496,-0.270
33.500,-0.270
33.504,-0.270
33.508,-0.275
33.512,-0.270
33.516,-0.255
33.520,-0.265
33.524,-0.265
33.528,-0.250
33.532,-0.255
33.536,-0.240
33.540,-0.225
33.544,-0.165
33.548,-0.140
33.552,-0.135
33.556,-0.140
33.560,-0.155
33.564,-0.135
33.568,-0.130
33.572,-0.160
33.576,-0.160
33.580,-0.205
33.584,-0.230
33.588,-0.255
33.592,-0.280
33.596,-0.275
33.600,-0.290
33.604,-0.275
33.608,-0.270
33.612,-0.295
33.616,-0.290
33.620,-0.310
33.624,-0.335
33.628,-0.330
33.632,-0.315
33.636,-0.330
33.640,-0.320
33.644,-0.305
33.648,-0.305
33.652,-0.305
33.656,-0.315
33.660,-0.320
33.664,-0.335
33.668,-0.350
33.672,-0.335
33.676,-0.335
33.680,-0.310
33.684,-0.305
33.688,-0.365
33.692,-0.380
33.696,-0.435
33.700,-0.405
33.704,-0.320
33.708,-0.095
33.712,0.305
33.716,0.650
33.720,1.000
33.724,1.080
33.728,0.550
33.732,-0.010
33.736,-0.235
33.740,-0.525
33.744,-0.880
33.748,-1.005
33.752,-0.880
33.756,-0.665
33.760,-0.450
33.764,-0.350
33.768,-0.335
33.772,-0.335
33.776,-0.330
33.780,-0.355
33.784,-0.335
33.788,-0.345
33.792,-0.350
33.796,-0.355
33.800,-0.340
33.804,-0.325
33.808,-0.330
33.812,-0.320
33.816,-0.325
33.820,-0.330
33.824,-0.340
33.828,-0.360
33.832,-0.320
33.836,-0.325
33.840,-0.330
33.844,-0.320
33.848,-0.300
33.852,-0.300
33.856,-0.305
33.860,-0.300
33.864,-0.320
33.868,-0.300
33.872,-0.265
33.876,-0.260
33.880,-0.275
33.884,-0.290
33.888,-0.290
33.892,-0.285
33.896,-0.270
33.900,-0.255
33.904,-0.260
33.908,-0.235
33.912,-0.230
33.916,-0.225
33.920,-0.215
33.924,-0.190
33.928,-0.185
33.932,-0.180
33.936,-0.160
33.940,-0.165
33.944,-0.165
33.948,-0.145
33.952,-0.125
33.956,-0.120
33.960,-0.110
33.964,-0.115
33.968,-0.120
33.972,-0.105
33.976,-0.105
33.980,-0.100
33.984,-0.105
33.988,-0.080
33.992,-0.075
33.996,-0.075
34.000,-0.075
34.004,-0.075
34.008,-0.090
34.012,-0.090
34.016,-0.065
34.020,-0.075
34.024,-0.070
34.028,-0.090
34.032,-0.095
34.036,-0.060
34.040,-0.060
34.044,-0.080
34.048,-0.085
34.052,-0.085
34.056,-0.085
34.060,-0.115
34.064,-0.120
34.068,-0.150
34.072,-0.165
34.076,-0.155
34.080,-0.165
34.084,-0.175
34.088,-0.185
34.092,-0.210
34.096,-0.200
34.100,-0.200
34.104,-0.190
34.108,-0.200
34.112,-0.195
34.116,-0.205
34.120,-0.210
34.124,-0.185
34.128,-0.180
34.132,-0.175
34.136,-0.160
34.140,-0.140
34.144,-0.170
34.148,-0.185
34.152,-0.185
34.156,-0.180
34.160,-0.165
34.164,-0.140
34.168,-0.115
34.172,-0.100
34.176,-0.060
34.180,-0.025
34.184,0.010
34.188,0.025
34.192,0.020
34.196,0.040
34.200,0.025
34.204,-0.005
34.208,-0.045
34.212,-0.045
34.216,-0.070
34.220,-0.090
34.224,-0.140
34.228,-0.135
34.232,-0.160
34.236,-0.195
34.240,-0.205
34.244,-0.205
34.248,-0.235
34.252,-0.255
34.256,-0.275
34.260,-0.250
34.264,-0.255
34.268,-0.250
34.272,-0.270
34.276,-0.275
34.280,-0.250
34.284,-0.260
34.288,-0.265
34.292,-0.275
34.296,-0.280
34.300,-0.280
34.304,-0.255
34.308,-0.250
34.312,-0.270
34.316,-0.255
34.320,-0.235
34.324,-0.250
34.328,-0.255
34.332,-0.265
34.336,-0.315
34.340,-0.350
34.344,-0.365
34.348,-0.315
34.352,-0.075
34.356,0.375
34.360,0.900
34.364,1.140
34.368,0.780
34.372,0.190
34.376,-0.110
34.380,-0.220
34.384,-0.380
34.388,-0.715
34.392,-0.940
34.396,-0.860
34.400,-0.665
34.404,-0.455
34.408,-0.330
34.412,-0.315
34.416,-0.300
34.420,-0.305
34.424,-0.305
34.428,-0.300
34.432,-0.305
34.436,-0.285
34.440,-0.290
34.444,-0.305
34.448,-0.310
34.452,-0.305
34.456,-0.290
34.460,-0.290
34.464,-0.290
34.468,-0.275
34.472,-0.285
34.476,-0.290
34.480,-0.280
34.484,-0.275
34.488,-0.275
34.492,-0.265
34.496,-0.275
34.500,-0.285
34.504,-0.310
34.508,-0.290
34.512,-0.260
34.516,-0.265
34.520,-0.255
34.524,-0.255
34.528,-0.240
34.532,-0.250
34.536,-0.255
34.540,-0.225
34.544,-0.215
34.548,-0.220
34.552,-0.215
34.556,-0.200
34.560,-0.200
34.564,-0.180
34.568,-0.195
34.572,-0.175
34.576,-0.170
34.580,-0.155
34.584,-0.135
34.588,-0.115
34.592,-0.120
34.596,-0.110
34.600,-0.115
34.604,-0.100
34.608,-0.095
34.612,-0.105
34.616,-0.095
34.620,-0.080
34.624,-0.080
34.628,-0.105
34.632,-0.085
34.636,-0.095
34.640,-0.095
34.644,-0.075
34.648,-0.085
34.652,-0.075
34.656,-0.070
34.660,-0.065
34.664,-0.090
34.668,-0.070
34.672,-0.075
34.676,-0.055
34.680,-0.075
34.684,-0.065
34.688,-0.080
34.692,-0.090
34.696,-0.120
34.700,-0.135
34.704,-0.140
34.708,-0.140
34.712,-0.165
34.716,-0.180
34.720,-0.180
34.724,-0.165
34.728,-0.160
34.732,-0.155
34.736,-0.155
34.740,-0.125
34.744,-0.110
34.748,-0.055
34.752,-0.030
34.756,-0.015
34.760,-0.005
34.764,0.005
34.768,-0.005
34.772,-0.040
34.776,-0.030
34.780,-0.045
34.784,-0.040
34.788,-0.040
34.792,-0.075
34.796,-0.085
34.800,-0.060
34.804,-0.080
34.808,-0.105
34.812,-0.130
34.816,-0.145
34.820,-0.180
34.824,-0.190
34.828,-0.200
34.832,-0.235
34.836,-0.230
34.840,-0.215
34.844,-0.230
34.848,-0.210
34.852,-0.225
34.856,-0.250
34.860,-0.240
34.864,-0.235
34.868,-0.235
34.872,-0.245
34.876,-0.245
34.880,-0.255
34.884,-0.240
34.888,-0.235
34.892,-0.240
34.896,-0.240
34.900,-0.230
34.904,-0.250
34.908,-0.275
34.912,-0.265
34.916,-0.240
34.920,-0.245
34.924,-0.240
34.928,-0.265
34.932,-0.325
34.936,-0.345
34.940,-0.225
34.944,0.065
34.948,0.560
34.952,1.035
34.956,1.160
34.960,0.670
34.964,0.085
34.968,-0.165
34.972,-0.365
34.976,-0.685
34.980,-0.995
34.984,-1.035
34.988,-0.895
34.992,-0.685
34.996,-0.450
35.000,-0.285
35.004,-0.250
35.008,-0.255
35.012,-0.260
35.016,-0.255
35.020,-0.265
35.024,-0.260
35.028,-0.255
35.032,-0.255
35.036,-0.240
35.040,-0.240
35.044,-0.250
35.048,-0.245
35.052,-0.230
35.056,-0.230
35.060,-0.250
35.064,-0.240
35.068,-0.240
35.072,-0.230
35.076,-0.230
35.080,-0.230
35.084,-0.225
35.088,-0.240
35.092,-0.230
35.096,-0.210
35.100,-0.220
35.104,-0.215
35.108,-0.200
35.112,-0.195
35.116,-0.215
35.120,-0.205
35.124,-0.215
35.128,-0.185
35.132,-0.175
35.136,-0.160
35.140,-0.155
35.144,-0.135
35.148,-0.130
35.152,-0.150
35.156,-0.170
35.160,-0.145
35.164,-0.130
35.168,-0.090
35.172,-0.080
35.176,-0.100
35.180,-0.105
35.184,-0.090
35.188,-0.090
35.192,-0.095
35.196,-0.085
35.200,-0.070
35.204,-0.080
35.208,-0.060
35.212,-0.045
35.216,-0.045
35.220,-0.075
35.224,-0.070
35.228,-0.065
35.232,-0.050
35.236,-0.040
35.240,-0.040
35.244,-0.045
35.248,-0.030
35.252,-0.040
35.256,-0.050
35.260,-0.045
35.264,-0.025
35.268,-0.030
35.272,-0.040
35.276,-0.050
35.280,-0.065
35.284,-0.100
35.288,-0.110
35.292,-0.120
35.296,-0.105
35.300,-0.105
35.304,-0.120
35.308,-0.130
35.312,-0.125
35.316,-0.155
35.320,-0.150
35.324,-0.140
35.328,-0.140
35.332,-0.140
35.336,-0.140
35.340,-0.155
35.344,-0.150
35.348,-0.135
35.352,-0.105
35.356,-0.115
35.360,-0.095
35.364,-0.110
35.368,-0.100
