'Elapsed time','ECG1'
'seconds','mV'
0.000,-0.010
0.004,0.000
0.008,-0.015
0.012,-0.005
0.016,0.000
0.020,0.000
0.024,-0.010
0.028,0.015
0.032,0.000
0.036,0.000
0.040,0.000
0.044,0.005
0.048,-0.010
0.052,0.005
0.056,-0.010
0.060,-0.005
0.064,-0.020
0.068,-0.010
0.072,-0.020
0.076,-0.020
0.080,-0.020
0.084,-0.040
0.088,-0.005
0.092,-0.025
0.096,-0.020
0.100,-0.025
0.104,-0.005
0.108,-0.020
0.112,-0.025
0.116,-0.025
0.120,-0.020
0.124,-0.040
0.128,-0.015
0.132,-0.020
0.136,-0.015
0.140,-0.030
0.144,-0.040
0.148,-0.070
0.152,-0.040
0.156,-0.040
0.160,-0.045
0.164,-0.040
0.168,-0.010
0.172,-0.040
0.176,-0.045
0.180,-0.050
0.184,-0.045
0.188,-0.055
0.192,-0.045
0.196,-0.040
0.200,-0.045
0.204,-0.030
0.208,-0.020
0.212,-0.030
0.216,-0.020
0.220,-0.045
0.224,-0.040
0.228,-0.045
0.232,-0.040
0.236,-0.040
0.240,-0.025
0.244,0.005
0.248,0.020
0.252,0.020
0.256,0.010
0.260,0.005
0.264,0.005
0.268,-0.025
0.272,-0.025
0.276,-0.030
0.280,-0.030
0.284,-0.050
0.288,-0.040
0.292,-0.050
0.296,-0.060
0.300,-0.070
0.304,-0.040
0.308,-0.045
0.312,-0.040
0.316,-0.050
0.320,-0.040
0.324,-0.050
0.328,-0.030
0.332,-0.045
0.336,-0.020
0.340,-0.040
0.344,-0.035
0.348,-0.040
0.352,-0.045
0.356,-0.055
0.360,-0.040
0.364,-0.040
0.368,-0.025
0.372,-0.030
0.376,-0.035
0.380,-0.045
0.384,-0.030
0.388,-0.035
0.392,-0.035
0.396,-0.030
0.400,-0.020
0.404,-0.015
0.408,0.015
0.412,0.090
0.416,0.165
0.420,0.235
0.424,0.320
0.428,0.370
0.432,0.350
0.436,0.295
0.440,0.175
0.444,-0.010
0.448,-0.185
0.452,-0.200
0.456,-0.110
0.460,-0.070
0.464,-0.085
0.468,-0.080
0.472,-0.050
0.476,-0.035
0.480,-0.060
0.484,-0.050
0.488,-0.050
0.492,-0.050
0.496,-0.050
0.500,-0.050
0.504,-0.065
0.508,-0.060
0.512,-0.040
0.516,-0.060
0.520,-0.045
0.524,-0.020
0.528,-0.050
0.532,-0.040
0.536,-0.020
0.540,-0.025
0.544,-0.040
0.548,-0.035
0.552,-0.035
0.556,-0.040
0.560,-0.020
0.564,-0.020
0.568,-0.030
0.572,-0.025
0.576,-0.015
0.580,-0.015
0.584,-0.030
0.588,0.000
0.592,-0.010
0.596,-0.040
0.600,-0.015
0.604,0.000
0.608,-0.020
0.612,-0.015
0.616,-0.010
0.620,0.000
0.624,-0.030
0.628,-0.020
0.632,0.000
0.636,0.005
0.640,-0.005
0.644,0.000
0.648,0.000
0.652,-0.005
0.656,-0.005
0.660,-0.015
0.664,-0.005
0.668,-0.020
0.672,-0.020
0.676,-0.030
0.680,-0.010
0.684,-0.020
0.688,-0.005
0.692,-0.035
0.696,-0.010
0.700,-0.005
0.704,-0.030
0.708,-0.025
0.712,-0.005
0.716,-0.015
0.720,-0.020
0.724,-0.005
0.728,-0.015
0.732,-0.010
0.736,-0.015
0.740,-0.005
0.744,0.015
0.748,-0.005
0.752,0.015
0.756,0.025
0.760,0.000
0.764,0.000
0.768,-0.010
0.772,0.010
0.776,-0.005
0.780,0.000
0.784,0.005
0.788,0.000
0.792,0.000
0.796,0.015
0.800,-0.010
0.804,-0.015
0.808,0.005
0.812,-0.005
0.816,0.005
0.820,-0.010
0.824,0.000
0.828,-0.015
0.832,0.000
0.836,-0.010
0.840,-0.005
0.844,-0.020
0.848,-0.010
0.852,0.005
0.856,-0.010
0.860,-0.005
0.864,-0.005
0.868,0.000
0.872,0.000
0.876,-0.005
0.880,-0.005
0.884,0.005
0.888,0.000
0.892,0.005
0.896,0.000
0.900,0.005
0.904,-0.005
0.908,-0.005
0.912,-0.015
0.916,-0.005
0.920,-0.010
0.924,0.000
0.928,-0.010
0.932,0.005
0.936,-0.010
0.940,0.005
0.944,-0.010
0.948,0.005
0.952,-0.010
0.956,0.000
0.960,-0.010
0.964,-0.025
0.968,0.000
0.972,-0.015
0.976,0.000
0.980,0.005
0.984,-0.020
0.988,-0.025
0.992,-0.020
0.996,-0.025
1.000,-0.030
1.004,-0.025
1.008,-0.035
1.012,-0.025
1.016,-0.035
1.020,-0.015
1.024,-0.040
1.028,-0.020
1.032,-0.010
1.036,-0.025
1.040,-0.015
1.044,-0.015
1.048,-0.040
1.052,-0.025
1.056,-0.020
1.060,-0.020
1.064,-0.020
1.068,-0.030
1.072,-0.030
1.076,-0.045
1.080,-0.045
1.084,-0.035
1.088,-0.030
1.092,-0.045
1.096,-0.035
1.100,-0.035
1.104,-0.050
1.108,-0.045
1.112,-0.045
1.116,-0.045
1.120,-0.040
1.124,-0.050
1.128,-0.050
1.132,-0.030
1.136,-0.035
1.140,-0.055
1.144,-0.035
1.148,-0.040
1.152,-0.025
1.156,-0.035
1.160,-0.040
1.164,-0.025
1.168,-0.035
1.172,-0.030
1.176,-0.040
1.180,-0.040
1.184,-0.055
1.188,-0.035
1.192,-0.015
1.196,-0.060
1.200,-0.040
1.204,-0.035
1.208,-0.030
1.212,-0.035
1.216,-0.025
1.220,-0.025
1.224,-0.040
1.228,-0.040
1.232,-0.025
1.236,-0.020
1.240,-0.020
1.244,-0.020
1.248,-0.020
1.252,-0.010
1.256,-0.005
1.260,0.020
1.264,0.025
1.268,-0.010
1.272,-0.005
1.276,-0.010
1.280,-0.010
1.284,-0.025
1.288,-0.020
1.292,-0.020
1.296,-0.040
1.300,-0.065
1.304,-0.060
1.308,-0.050
1.312,-0.050
1.316,-0.035
1.320,-0.045
1.324,-0.030
1.328,-0.050
1.332,-0.030
1.336,-0.015
1.340,-0.040
1.344,-0.040
1.348,-0.025
1.352,-0.025
1.356,-0.050
1.360,-0.030
1.364,-0.035
1.368,-0.050
1.372,-0.065
1.376,-0.040
1.380,-0.055
1.384,-0.045
1.388,-0.035
1.392,-0.040
1.396,-0.030
1.400,-0.020
1.404,0.005
1.408,0.045
1.412,0.120
1.416,0.195
1.420,0.265
1.424,0.315
1.428,0.305
1.432,0.275
1.436,0.200
1.440,0.070
1.444,-0.085
1.448,-0.175
1.452,-0.135
1.456,-0.085
1.460,-0.085
1.464,-0.090
1.468,-0.080
1.472,-0.070
1.476,-0.060
1.480,-0.070
1.484,-0.065
1.488,-0.065
1.492,-0.050
1.496,-0.075
1.500,-0.070
1.504,-0.060
1.508,-0.070
1.512,-0.085
1.516,-0.065
1.520,-0.065
1.524,-0.060
1.528,-0.070
1.532,-0.075
1.536,-0.060
1.540,-0.050
1.544,-0.060
1.548,-0.055
1.552,-0.040
1.556,-0.060
1.560,-0.065
1.564,-0.050
1.568,-0.060
1.572,-0.060
1.576,-0.055
1.580,-0.040
1.584,-0.045
1.588,-0.040
1.592,-0.040
1.596,-0.060
1.600,-0.045
1.604,-0.050
1.608,-0.050
1.612,-0.045
1.616,-0.045
1.620,-0.030
1.624,-0.035
1.628,-0.030
1.632,-0.030
1.636,-0.040
1.640,-0.025
1.644,-0.035
1.648,-0.015
1.652,-0.015
1.656,-0.025
1.660,-0.020
1.664,-0.025
1.668,-0.025
1.672,-0.020
1.676,-0.030
1.680,-0.030
1.684,-0.020
1.688,-0.010
1.692,-0.015
1.696,-0.005
1.700,-0.015
1.704,-0.025
1.708,-0.030
1.712,-0.025
1.716,-0.015
1.720,-0.025
1.724,-0.020
1.728,-0.010
1.732,-0.010
1.736,0.000
1.740,-0.010
1.744,0.005
1.748,0.000
1.752,0.000
1.756,0.015
1.760,0.025
1.764,0.025
1.768,0.020
1.772,0.005
1.776,0.000
1.780,0.000
1.784,0.005
1.788,0.000
1.792,0.000
1.796,0.020
1.800,0.025
1.804,0.010
1.808,0.000
1.812,0.000
1.816,-0.010
1.820,-0.010
1.824,0.000
1.828,0.000
1.832,-0.005
1.836,0.000
1.840,0.000
1.844,-0.010
1.848,0.005
1.852,-0.010
1.856,0.000
1.860,0.035
1.864,0.020
1.868,0.005
1.872,0.000
1.876,0.000
1.880,-0.010
1.884,0.020
1.888,0.005
1.892,0.000
1.896,-0.005
1.900,0.005
1.904,0.005
1.908,0.005
1.912,0.000
1.916,0.005
1.920,-0.025
1.924,-0.015
1.928,-0.005
1.932,0.005
1.936,-0.005
1.940,-0.010
1.944,0.000
1.948,-0.010
1.952,-0.020
1.956,-0.025
1.960,0.000
1.964,-0.005
1.968,0.000
1.972,-0.005
1.976,-0.020
1.980,-0.015
1.984,-0.030
1.988,-0.015
1.992,-0.020
1.996,-0.020
2.000,0.000
2.004,-0.015
2.008,-0.020
2.012,-0.015
2.016,-0.015
2.020,-0.025
2.024,-0.005
2.028,-0.025
2.032,-0.020
2.036,-0.015
2.040,-0.020
2.044,-0.020
2.048,-0.025
2.052,-0.030
2.056,-0.035
2.060,-0.050
2.064,-0.030
2.068,-0.030
2.072,-0.025
2.076,-0.040
2.080,-0.040
2.084,-0.040
2.088,-0.015
2.092,-0.005
2.096,0.005
2.100,-0.005
2.104,0.000
2.108,0.000
2.112,0.005
2.116,-0.015
2.120,-0.040
2.124,-0.045
2.128,-0.060
2.132,-0.060
2.136,-0.080
2.140,-0.065
2.144,-0.060
2.148,-0.065
2.152,-0.060
2.156,-0.040
2.160,-0.040
2.164,-0.060
2.168,-0.060
2.172,-0.065
2.176,-0.060
2.180,-0.065
2.184,-0.070
2.188,-0.070
2.192,-0.070
2.196,-0.065
2.200,-0.070
2.204,-0.070
2.208,-0.060
2.212,-0.040
2.216,-0.045
2.220,-0.035
2.224,-0.055
2.228,-0.045
2.232,-0.045
2.236,-0.050
2.240,-0.035
2.244,-0.035
2.248,-0.030
2.252,0.010
2.256,0.070
2.260,0.130
2.264,0.200
2.268,0.295
2.272,0.315
2.276,0.260
2.280,0.165
2.284,0.020
2.288,-0.155
2.292,-0.275
2.296,-0.295
2.300,-0.205
2.304,-0.115
2.308,-0.095
2.312,-0.100
2.316,-0.080
2.320,-0.060
2.324,-0.065
2.328,-0.080
2.332,-0.070
2.336,-0.085
2.340,-0.080
2.344,-0.080
2.348,-0.080
2.352,-0.085
2.356,-0.060
2.360,-0.080
2.364,-0.065
2.368,-0.085
2.372,-0.055
2.376,-0.065
2.380,-0.065
2.384,-0.080
2.388,-0.085
2.392,-0.075
2.396,-0.070
2.400,-0.070
2.404,-0.040
2.408,-0.060
2.412,-0.070
2.416,-0.060
2.420,-0.070
2.424,-0.075
2.428,-0.040
2.432,-0.060
2.436,-0.070
2.440,-0.070
2.444,-0.045
2.448,-0.055
2.452,-0.060
2.456,-0.055
2.460,-0.060
2.464,-0.050
2.468,-0.055
2.472,-0.060
2.476,-0.040
2.480,-0.040
2.484,-0.040
2.488,-0.060
2.492,-0.045
2.496,-0.060
2.500,-0.050
2.504,-0.050
2.508,-0.030
2.512,-0.045
2.516,-0.060
2.520,-0.065
2.524,-0.055
2.528,-0.050
2.532,-0.060
2.536,-0.065
2.540,-0.050
2.544,-0.055
2.548,-0.070
2.552,-0.055
2.556,-0.045
2.560,-0.045
2.564,-0.065
2.568,-0.045
2.572,-0.050
2.576,-0.030
2.580,-0.015
2.584,-0.020
2.588,-0.010
2.592,0.005
2.596,0.000
2.600,-0.005
2.604,-0.010
2.608,-0.005
2.612,-0.025
2.616,-0.015
2.620,-0.020
2.624,-0.025
2.628,-0.005
2.632,0.000
2.636,0.000
2.640,-0.020
2.644,-0.010
2.648,-0.010
2.652,-0.030
2.656,-0.025
2.660,-0.020
2.664,-0.025
2.668,0.000
2.672,-0.005
2.676,-0.020
2.680,-0.015
2.684,0.015
2.688,-0.015
2.692,-0.005
2.696,0.000
2.700,0.015
2.704,0.000
2.708,0.000
2.712,-0.025
2.716,0.000
2.720,0.000
2.724,0.005
2.728,0.000
2.732,0.010
2.736,0.000
2.740,0.000
2.744,0.000
2.748,0.000
2.752,-0.005
2.756,-0.005
2.760,0.000
2.764,-0.015
2.768,-0.015
2.772,-0.005
2.776,-0.020
2.780,-0.025
2.784,0.000
2.788,-0.020
2.792,-0.010
2.796,-0.035
2.800,-0.025
2.804,-0.020
2.808,-0.040
2.812,-0.015
2.816,-0.030
2.820,-0.030
2.824,-0.020
2.828,-0.040
2.832,-0.035
2.836,-0.035
2.840,-0.025
2.844,-0.040
2.848,-0.020
2.852,-0.020
2.856,-0.015
2.860,-0.030
2.864,-0.045
2.868,-0.025
2.872,-0.035
2.876,-0.015
2.880,-0.020
2.884,-0.025
2.888,-0.025
2.892,-0.040
2.896,-0.040
2.900,-0.025
2.904,-0.025
2.908,-0.025
2.912,-0.040
2.916,-0.020
2.920,-0.045
2.924,-0.015
2.928,-0.035
2.932,-0.015
2.936,-0.035
2.940,-0.020
2.944,-0.035
2.948,-0.015
2.952,-0.035
2.956,-0.045
2.960,-0.030
2.964,-0.035
2.968,-0.040
2.972,-0.040
2.976,-0.040
2.980,-0.045
2.984,-0.040
2.988,-0.040
2.992,-0.045
2.996,-0.055
3.000,-0.030
3.004,-0.045
3.008,-0.020
3.012,-0.025
3.016,-0.030
3.020,-0.025
3.024,-0.020
3.028,-0.035
3.032,-0.030
3.036,-0.030
3.040,-0.045
3.044,-0.040
3.048,-0.040
3.052,-0.040
3.056,-0.030
3.060,-0.045
3.064,-0.030
3.068,-0.030
3.072,-0.040
3.076,-0.025
3.080,-0.045
3.084,-0.050
3.088,-0.020
3.092,-0.010
3.096,0.005
3.100,0.005
3.104,0.020
3.108,-0.020
3.112,-0.015
3.116,-0.020
3.120,-0.015
3.124,-0.035
3.128,-0.050
3.132,-0.055
3.136,-0.065
3.140,-0.065
3.144,-0.075
3.148,-0.085
3.152,-0.085
3.156,-0.080
3.160,-0.050
3.164,-0.065
3.168,-0.060
3.172,-0.060
3.176,-0.040
3.180,-0.060
3.184,-0.070
3.188,-0.065
3.192,-0.070
3.196,-0.055
3.200,-0.070
3.204,-0.060
3.208,-0.050
3.212,-0.055
3.216,-0.065
3.220,-0.060
3.224,-0.070
3.228,-0.035
3.232,-0.040
3.236,-0.055
3.240,-0.050
3.244,-0.055
3.248,-0.025
3.252,0.005
3.256,0.050
3.260,0.105
3.264,0.205
3.268,0.300
3.272,0.310
3.276,0.300
3.280,0.175
3.284,0.000
3.288,-0.145
3.292,-0.245
3.296,-0.265
3.300,-0.190
3.304,-0.130
3.308,-0.095
3.312,-0.075
3.316,-0.065
3.320,-0.040
3.324,-0.075
3.328,-0.060
3.332,-0.075
3.336,-0.050
3.340,-0.055
3.344,-0.070
3.348,-0.075
3.352,-0.055
3.356,-0.040
3.360,-0.070
3.364,-0.070
3.368,-0.040
3.372,-0.045
3.376,-0.040
3.380,-0.050
3.384,-0.050
3.388,-0.045
3.392,-0.045
3.396,-0.050
3.400,-0.040
3.404,-0.035
3.408,-0.035
3.412,-0.040
3.416,-0.055
3.420,-0.025
3.424,-0.055
3.428,-0.050
3.432,-0.035
3.436,-0.060
3.440,-0.030
3.444,-0.035
3.448,-0.045
3.452,-0.055
3.456,-0.040
3.460,-0.035
3.464,-0.020
3.468,-0.030
3.472,-0.035
3.476,-0.035
3.480,-0.035
3.484,-0.030
3.488,-0.045
3.492,-0.020
3.496,-0.030
3.500,-0.015
3.504,-0.035
3.508,-0.020
3.512,-0.040
3.516,-0.040
3.520,-0.035
3.524,-0.025
3.528,-0.020
3.532,-0.025
3.536,-0.020
3.540,-0.015
3.544,-0.020
3.548,0.000
3.552,-0.010
3.556,-0.035
3.560,-0.015
3.564,-0.020
3.568,-0.010
3.572,0.005
3.576,0.000
3.580,-0.010
3.584,0.015
3.588,0.015
3.592,0.010
3.596,0.030
3.600,0.020
3.604,0.020
3.608,0.015
3.612,0.020
3.616,0.010
3.620,0.010
3.624,0.020
3.628,0.035
3.632,0.020
3.636,0.020
3.640,0.005
3.644,0.005
3.648,0.010
3.652,0.010
3.656,0.015
3.660,0.020
3.664,0.010
3.668,0.010
3.672,0.015
3.676,0.005
3.680,0.030
3.684,0.020
3.688,0.010
3.692,0.035
3.696,0.020
3.700,0.000
3.704,0.005
3.708,0.025
3.712,0.010
3.716,0.020
3.720,0.015
3.724,0.020
3.728,0.010
3.732,0.020
3.736,0.010
3.740,0.015
3.744,0.015
3.748,0.030
3.752,0.000
3.756,0.005
3.760,0.005
3.764,0.015
3.768,0.005
3.772,0.010
3.776,0.015
3.780,0.000
3.784,-0.005
3.788,0.005
3.792,0.000
3.796,0.005
3.800,-0.020
3.804,-0.005
3.808,0.010
3.812,0.005
3.816,0.015
3.820,0.015
3.824,0.015
3.828,0.005
3.832,0.000
3.836,0.010
3.840,0.010
3.844,0.010
3.848,-0.010
3.852,-0.005
3.856,-0.005
3.860,-0.010
3.864,-0.005
3.868,-0.015
3.872,0.005
3.876,0.000
3.880,0.000
3.884,0.005
3.888,0.020
3.892,0.035
3.896,0.015
3.900,0.035
3.904,0.045
3.908,0.040
3.912,0.040
3.916,0.030
3.920,0.030
3.924,0.020
3.928,0.015
3.932,0.000
3.936,-0.005
3.940,-0.015
3.944,-0.045
3.948,-0.025
3.952,-0.020
3.956,-0.010
3.960,0.005
3.964,0.000
3.968,0.000
3.972,0.005
3.976,0.000
3.980,0.000
3.984,0.000
3.988,-0.020
3.992,0.005
3.996,-0.005
4.000,0.005
4.004,-0.005
4.008,0.005
4.012,0.015
4.016,-0.015
4.020,0.000
4.024,0.000
4.028,0.000
4.032,0.000
4.036,0.000
4.040,0.000
4.044,0.000
4.048,0.000
4.052,0.000
4.056,0.035
4.060,0.070
4.064,0.145
4.068,0.205
4.072,0.270
4.076,0.340
4.080,0.375
4.084,0.345
4.088,0.295
4.092,0.210
4.096,0.015
4.100,-0.120
4.104,-0.120
4.108,-0.060
4.112,-0.045
4.116,-0.040
4.120,-0.060
4.124,-0.050
4.128,-0.055
4.132,-0.030
4.136,-0.045
4.140,-0.025
4.144,-0.050
4.148,-0.040
4.152,-0.035
4.156,-0.060
4.160,-0.045
4.164,-0.040
4.168,-0.040
4.172,-0.065
4.176,-0.050
4.180,-0.060
4.184,-0.060
4.188,-0.035
4.192,-0.035
4.196,-0.040
4.200,-0.055
4.204,-0.040
4.208,-0.050
4.212,-0.050
4.216,-0.045
4.220,-0.045
4.224,-0.055
4.228,-0.040
4.232,-0.045
4.236,-0.045
4.240,-0.045
4.244,-0.040
4.248,-0.040
4.252,-0.050
4.256,-0.035
4.260,-0.040
4.264,-0.040
4.268,-0.035
4.272,-0.045
4.276,-0.025
4.280,-0.045
4.284,-0.040
4.288,-0.040
4.292,-0.035
4.296,-0.010
4.300,-0.015
4.304,-0.035
4.308,-0.035
4.312,-0.015
4.316,-0.020
4.320,-0.025
4.324,-0.040
4.328,-0.010
4.332,-0.015
4.336,-0.010
4.340,-0.020
4.344,-0.020
4.348,-0.030
4.352,-0.050
4.356,-0.030
4.360,-0.015
4.364,-0.040
4.368,-0.005
4.372,-0.030
4.376,-0.020
4.380,-0.010
4.384,0.005
4.388,-0.010
4.392,0.005
4.396,0.000
4.400,0.010
4.404,0.000
4.408,0.015
4.412,0.010
4.416,0.015
4.420,0.005
4.424,0.010
4.428,0.005
4.432,0.010
4.436,0.000
4.440,0.005
4.444,0.000
4.448,0.000
4.452,-0.010
4.456,-0.005
4.460,0.010
4.464,-0.005
4.468,-0.005
4.472,0.000
4.476,0.000
4.480,0.000
4.484,-0.005
4.488,0.000
4.492,-0.010
4.496,-0.010
4.500,0.000
4.504,0.000
4.508,0.000
4.512,-0.015
4.516,0.000
4.520,0.015
4.524,0.000
4.528,0.000
4.532,0.005
4.536,0.005
4.540,0.005
4.544,0.005
4.548,0.000
4.552,-0.015
4.556,-0.005
4.560,0.015
4.564,0.005
4.568,0.010
4.572,0.015
4.576,0.000
4.580,0.000
4.584,0.005
4.588,0.000
4.592,0.005
4.596,0.000
4.600,0.000
4.604,-0.005
4.608,-0.005
4.612,0.000
4.616,0.000
4.620,0.000
4.624,0.000
4.628,0.000
4.632,-0.015
4.636,0.000
4.640,0.015
4.644,0.010
4.648,0.005
4.652,0.005
4.656,0.000
4.660,0.005
4.664,-0.015
4.668,0.000
4.672,-0.005
4.676,0.010
4.680,0.020
4.684,0.015
4.688,0.015
4.692,-0.005
4.696,0.005
4.700,0.015
4.704,0.000
4.708,-0.010
4.712,-0.005
4.716,0.030
4.720,0.025
4.724,0.005
4.728,-0.015
4.732,0.000
4.736,-0.020
4.740,-0.005
4.744,0.005
4.748,0.005
4.752,0.000
4.756,0.005
4.760,0.010
4.764,-0.010
4.768,-0.005
4.772,-0.010
4.776,-0.005
4.780,-0.010
4.784,-0.010
4.788,0.000
4.792,-0.005
4.796,-0.010
4.800,-0.010
4.804,-0.005
4.808,-0.005
4.812,-0.010
4.816,-0.005
4.820,0.000
4.824,-0.040
4.828,-0.010
4.832,0.005
4.836,0.000
4.840,0.010
4.844,-0.005
4.848,0.015
4.852,0.000
4.856,0.000
4.860,0.010
4.864,0.000
4.868,-0.010
4.872,-0.010
4.876,-0.010
4.880,0.000
4.884,0.005
4.888,0.010
4.892,0.040
4.896,0.035
4.900,0.025
4.904,0.030
4.908,0.010
4.912,0.015
4.916,0.010
4.920,-0.005
4.924,-0.015
4.928,-0.015
4.932,-0.030
4.936,-0.025
4.940,-0.025
4.944,-0.040
4.948,-0.045
4.952,-0.035
4.956,-0.025
4.960,-0.020
4.964,-0.030
4.968,-0.030
4.972,-0.030
4.976,-0.045
4.980,-0.030
4.984,-0.025
4.988,-0.030
4.992,-0.020
4.996,-0.035
5.000,-0.035
5.004,-0.035
5.008,-0.025
5.012,-0.030
5.016,-0.005
5.020,-0.010
5.024,-0.015
5.028,-0.025
5.032,-0.020
5.036,-0.025
5.040,-0.025
5.044,-0.005
5.048,0.025
5.052,0.065
5.056,0.120
5.060,0.215
5.064,0.305
5.068,0.355
5.072,0.305
5.076,0.190
5.080,0.010
5.084,-0.145
5.088,-0.210
5.092,-0.145
5.096,-0.105
5.100,-0.075
5.104,-0.070
5.108,-0.050
5.112,-0.050
5.116,-0.045
5.120,-0.055
5.124,-0.070
5.128,-0.050
5.132,-0.040
5.136,-0.065
5.140,-0.045
5.144,-0.065
5.148,-0.050
5.152,-0.070
5.156,-0.040
5.160,-0.045
5.164,-0.050
5.168,-0.045
5.172,-0.040
5.176,-0.040
5.180,-0.050
5.184,-0.075
5.188,-0.055
5.192,-0.040
5.196,-0.055
5.200,-0.055
5.204,-0.050
5.208,-0.055
5.212,-0.045
5.216,-0.065
5.220,-0.050
5.224,-0.040
5.228,-0.045
5.232,-0.060
5.236,-0.040
5.240,-0.040
5.244,-0.030
5.248,-0.040
5.252,-0.050
5.256,-0.050
5.260,-0.055
5.264,-0.035
5.268,-0.015
5.272,-0.040
5.276,-0.025
5.280,-0.035
5.284,-0.025
5.288,-0.040
5.292,-0.030
5.296,-0.030
5.300,-0.015
5.304,-0.035
5.308,-0.040
5.312,-0.005
5.316,-0.020
5.320,-0.030
5.324,-0.040
5.328,-0.045
5.332,-0.045
5.336,-0.040
5.340,-0.040
5.344,-0.030
5.348,-0.035
5.352,-0.045
5.356,-0.035
5.360,-0.040
5.364,-0.030
5.368,0.000
5.372,0.005
5.376,-0.025
5.380,0.000
5.384,0.010
5.388,0.000
5.392,0.000
5.396,0.015
5.400,0.020
5.404,0.010
5.408,0.015
5.412,0.020
5.416,0.005
5.420,-0.005
5.424,0.000
5.428,-0.030
5.432,-0.010
5.436,-0.015
5.440,0.000
5.444,-0.005
5.448,-0.010
5.452,-0.015
5.456,-0.025
5.460,0.000
5.464,-0.010
5.468,-0.015
5.472,-0.015
5.476,0.000
5.480,0.000
5.484,0.000
5.488,0.000
5.492,-0.005
5.496,-0.005
5.500,0.005
5.504,0.000
5.508,0.000
5.512,0.000
5.516,0.005
5.520,0.000
5.524,-0.005
5.528,-0.005
5.532,-0.005
5.536,0.000
5.540,0.010
5.544,0.000
5.548,0.015
5.552,-0.025
5.556,0.005
5.560,0.000
5.564,0.005
5.568,-0.005
5.572,-0.010
5.576,0.000
5.580,0.000
5.584,0.015
5.588,0.015
5.592,-0.010
5.596,0.000
5.600,-0.005
5.604,0.000
5.608,-0.030
5.612,-0.010
5.616,-0.010
5.620,-0.005
5.624,0.000
5.628,0.000
5.632,-0.005
5.636,0.005
5.640,-0.005
5.644,0.000
5.648,-0.005
5.652,-0.010
5.656,0.000
5.660,-0.010
5.664,0.010
5.668,0.000
5.672,0.015
5.676,0.010
5.680,0.005
5.684,0.015
5.688,0.005
5.692,0.005
5.696,0.020
5.700,0.045
5.704,0.040
5.708,0.055
5.712,0.055
5.716,0.060
5.720,0.030
5.724,0.045
5.728,0.025
5.732,-0.005
5.736,0.000
5.740,-0.005
5.744,-0.020
5.748,-0.020
5.752,-0.030
5.756,-0.010
5.760,-0.005
5.764,-0.005
5.768,-0.020
5.772,-0.030
5.776,-0.010
5.780,-0.015
5.784,-0.030
5.788,-0.015
5.792,-0.015
5.796,-0.030
5.800,-0.020
5.804,-0.025
5.808,-0.025
5.812,-0.030
5.816,-0.010
5.820,-0.020
5.824,-0.025
5.828,-0.015
5.832,-0.035
5.836,-0.010
5.840,-0.010
5.844,0.000
5.848,-0.015
5.852,-0.015
5.856,-0.025
5.860,-0.005
5.864,0.045
5.868,0.095
5.872,0.185
5.876,0.295
5.880,0.345
5.884,0.335
5.888,0.270
5.892,0.145
5.896,-0.055
5.900,-0.205
5.904,-0.200
5.908,-0.150
5.912,-0.075
5.916,-0.045
5.920,-0.065
5.924,-0.080
5.928,-0.050
5.932,-0.010
5.936,-0.035
5.940,-0.050
5.944,-0.040
5.948,-0.065
5.952,-0.065
5.956,-0.060
5.960,-0.045
5.964,-0.050
5.968,-0.035
5.972,-0.065
5.976,-0.040
5.980,-0.030
5.984,-0.055
5.988,-0.065
5.992,-0.055
5.996,-0.050
6.000,-0.045
6.004,-0.065
6.008,-0.045
6.012,-0.045
6.016,-0.045
6.020,-0.050
6.024,-0.040
6.028,-0.060
6.032,-0.030
6.036,-0.055
6.040,-0.050
6.044,-0.035
6.048,-0.035
6.052,-0.045
6.056,-0.050
6.060,-0.065
6.064,-0.040
6.068,-0.035
6.072,-0.025
6.076,-0.040
6.080,-0.040
6.084,-0.040
6.088,-0.060
6.092,-0.025
6.096,-0.030
6.100,-0.030
6.104,-0.035
6.108,-0.030
6.112,-0.040
6.116,-0.035
6.120,-0.035
6.124,-0.050
6.128,-0.050
6.132,-0.035
6.136,-0.035
6.140,-0.045
6.144,-0.055
6.148,-0.060
6.152,-0.055
6.156,-0.050
6.160,-0.045
6.164,-0.035
6.168,-0.030
6.172,-0.060
6.176,-0.035
6.180,-0.050
6.184,-0.035
6.188,-0.015
6.192,0.005
6.196,-0.005
6.200,-0.025
6.204,0.000
6.208,0.005
6.212,0.005
6.216,-0.005
6.220,-0.010
6.224,0.005
6.228,0.000
6.232,-0.005
6.236,-0.020
6.240,-0.010
6.244,-0.010
6.248,-0.005
6.252,-0.005
6.256,0.000
6.260,-0.005
6.264,0.000
6.268,-0.025
6.272,-0.005
6.276,-0.015
6.280,-0.005
6.284,0.005
6.288,-0.010
6.292,-0.005
6.296,-0.005
6.300,0.000
6.304,0.000
6.308,0.000
6.312,0.005
6.316,0.000
6.320,0.005
6.324,0.000
6.328,0.015
6.332,0.005
6.336,0.010
6.340,0.005
6.344,0.010
6.348,0.000
6.352,0.020
6.356,0.000
6.360,0.020
6.364,0.000
6.368,0.005
6.372,0.005
6.376,0.000
6.380,0.015
6.384,0.000
6.388,-0.005
6.392,-0.005
6.396,-0.020
6.400,0.005
6.404,-0.025
6.408,-0.010
6.412,0.000
6.416,-0.005
6.420,0.000
6.424,0.005
6.428,0.000
6.432,-0.005
6.436,-0.010
6.440,-0.005
6.444,-0.005
6.448,-0.020
6.452,-0.010
6.456,-0.020
6.460,0.000
6.464,-0.010
6.468,-0.015
6.472,-0.015
6.476,-0.010
6.480,-0.020
6.484,0.000
6.488,-0.010
6.492,-0.005
6.496,-0.010
6.500,0.000
6.504,0.000
6.508,0.005
6.512,0.005
6.516,-0.020
6.520,0.000
6.524,0.000
6.528,0.000
6.532,0.005
6.536,-0.010
6.540,0.010
6.544,-0.015
6.548,0.000
6.552,0.005
6.556,-0.010
6.560,-0.010
6.564,0.005
6.568,0.000
6.572,-0.010
6.576,0.000
6.580,0.000
6.584,0.000
6.588,0.010
6.592,0.010
6.596,0.005
6.600,0.000
6.604,0.015
6.608,0.000
6.612,0.000
6.616,0.010
6.620,0.010
6.624,0.005
6.628,0.010
6.632,0.015
6.636,0.000
6.640,0.010
6.644,0.005
6.648,-0.005
6.652,0.005
6.656,0.005
6.660,0.005
6.664,0.010
6.668,0.000
6.672,0.010
6.676,0.015
6.680,0.040
6.684,0.045
6.688,0.030
6.692,0.050
6.696,0.070
6.700,0.075
6.704,0.060
6.708,0.045
6.712,0.035
6.716,0.045
6.720,0.050
6.724,0.020
6.728,0.015
6.732,0.010
6.736,0.000
6.740,-0.010
6.744,-0.005
6.748,0.015
6.752,0.020
6.756,0.005
6.760,0.005
6.764,0.000
6.768,-0.005
6.772,-0.005
6.776,0.010
6.780,0.005
6.784,0.010
6.788,0.000
6.792,0.000
6.796,0.005
6.800,0.000
6.804,-0.015
6.808,-0.015
6.812,-0.010
6.816,-0.015
6.820,-0.020
6.824,0.000
6.828,0.000
6.832,-0.005
6.836,0.005
6.840,0.005
6.844,-0.005
6.848,0.020
6.852,0.085
6.856,0.125
6.860,0.210
6.864,0.300
6.868,0.355
6.872,0.315
6.876,0.250
6.880,0.125
6.884,-0.050
6.888,-0.165
6.892,-0.140
6.896,-0.100
6.900,-0.035
6.904,-0.030
6.908,-0.040
6.912,-0.040
6.916,-0.030
6.920,-0.035
6.924,-0.030
6.928,-0.035
6.932,-0.035
6.936,-0.015
6.940,-0.030
6.944,-0.020
6.948,-0.035
6.952,-0.055
6.956,-0.045
6.960,-0.030
6.964,-0.030
6.968,-0.060
6.972,-0.035
6.976,-0.040
6.980,-0.040
6.984,-0.030
6.988,-0.040
6.992,-0.040
6.996,-0.030
7.000,-0.025
7.004,-0.030
7.008,-0.030
7.012,-0.030
7.016,-0.045
7.020,-0.030
7.024,-0.045
7.028,-0.020
7.032,-0.025
7.036,-0.030
7.040,-0.065
7.044,-0.045
7.048,-0.040
7.052,-0.035
7.056,-0.025
7.060,-0.020
7.064,-0.040
7.068,-0.030
7.072,-0.050
7.076,-0.010
7.080,-0.020
7.084,-0.015
7.088,-0.035
7.092,-0.030
7.096,-0.015
7.100,-0.025
7.104,-0.035
7.108,-0.025
7.112,-0.030
7.116,-0.035
7.120,-0.035
7.124,-0.040
7.128,-0.050
7.132,-0.040
7.136,-0.050
7.140,-0.050
7.144,-0.035
7.148,-0.010
7.152,-0.015
7.156,-0.020
7.160,-0.020
7.164,-0.025
7.168,-0.040
7.172,-0.030
7.176,-0.005
7.180,-0.005
7.184,0.000
7.188,-0.005
7.192,0.010
7.196,0.000
7.200,0.000
7.204,0.005
7.208,0.005
7.212,-0.005
7.216,-0.015
7.220,-0.020
7.224,-0.010
7.228,-0.010
7.232,-0.025
7.236,-0.015
7.240,-0.020
7.244,-0.030
7.248,-0.025
7.252,-0.025
7.256,-0.030
7.260,-0.015
7.264,-0.005
7.268,-0.010
7.272,-0.015
7.276,-0.010
7.280,-0.020
7.284,-0.005
7.288,-0.015
7.292,-0.010
7.296,-0.010
7.300,-0.015
7.304,-0.010
7.308,-0.015
7.312,-0.015
7.316,-0.010
7.320,-0.005
7.324,0.000
7.328,-0.010
7.332,-0.020
7.336,0.000
7.340,-0.020
7.344,-0.005
7.348,0.000
7.352,-0.010
7.356,0.000
7.360,0.000
7.364,-0.015
7.368,-0.020
7.372,-0.015
7.376,-0.025
7.380,-0.020
7.384,-0.035
7.388,-0.025
7.392,-0.030
7.396,-0.040
7.400,-0.015
7.404,-0.020
7.408,-0.040
7.412,-0.040
7.416,-0.020
7.420,-0.020
7.424,-0.055
7.428,-0.025
7.432,-0.030
7.436,-0.030
7.440,-0.025
7.444,-0.035
7.448,-0.040
7.452,-0.020
7.456,-0.030
7.460,-0.030
7.464,-0.035
7.468,-0.035
7.472,-0.040
7.476,-0.020
7.480,-0.030
7.484,-0.030
7.488,-0.035
7.492,-0.025
7.496,-0.025
7.500,0.000
7.504,0.005
7.508,-0.005
7.512,0.005
7.516,0.000
7.520,-0.015
7.524,-0.025
7.528,-0.035
7.532,-0.040
7.536,-0.045
7.540,-0.040
7.544,-0.040
7.548,-0.060
7.552,-0.060
7.556,-0.060
7.560,-0.050
7.564,-0.045
7.568,-0.050
7.572,-0.060
7.576,-0.055
7.580,-0.050
7.584,-0.055
7.588,-0.050
7.592,-0.045
7.596,-0.045
7.600,-0.055
7.604,-0.045
7.608,-0.040
7.612,-0.045
7.616,-0.020
7.620,-0.050
7.624,-0.065
7.628,-0.040
7.632,-0.035
7.636,-0.045
7.640,-0.045
7.644,-0.025
7.648,-0.025
7.652,-0.030
7.656,-0.005
7.660,0.005
7.664,0.040
7.668,0.090
7.672,0.160
7.676,0.235
7.680,0.325
7.684,0.370
7.688,0.315
7.692,0.190
7.696,0.025
7.700,-0.145
7.704,-0.175
7.708,-0.120
7.712,-0.070
7.716,-0.085
7.720,-0.080
7.724,-0.080
7.728,-0.065
7.732,-0.070
7.736,-0.065
7.740,-0.085
7.744,-0.065
7.748,-0.050
7.752,-0.065
7.756,-0.060
7.760,-0.060
7.764,-0.065
7.768,-0.065
7.772,-0.050
7.776,-0.055
7.780,-0.055
7.784,-0.065
7.788,-0.040
7.792,-0.060
7.796,-0.065
7.800,-0.070
7.804,-0.070
7.808,-0.055
7.812,-0.055
7.816,-0.080
7.820,-0.060
7.824,-0.060
7.828,-0.055
7.832,-0.050
7.836,-0.060
7.840,-0.050
7.844,-0.060
7.848,-0.065
7.852,-0.045
7.856,-0.060
7.860,-0.065
7.864,-0.045
7.868,-0.050
7.872,-0.055
7.876,-0.065
7.880,-0.050
7.884,-0.060
7.888,-0.055
7.892,-0.050
7.896,-0.050
7.900,-0.050
7.904,-0.055
7.908,-0.050
7.912,-0.055
7.916,-0.065
7.920,-0.055
7.924,-0.050
7.928,-0.040
7.932,-0.055
7.936,-0.060
7.940,-0.060
7.944,-0.055
7.948,-0.045
7.952,-0.040
7.956,-0.040
7.960,-0.040
7.964,-0.065
7.968,-0.065
7.972,-0.055
7.976,-0.055
7.980,-0.035
7.984,-0.025
7.988,-0.015
7.992,-0.040
7.996,-0.025
8.000,-0.025
8.004,-0.010
8.008,-0.025
8.012,-0.020
8.016,-0.030
8.020,-0.045
8.024,-0.025
8.028,-0.045
8.032,-0.025
8.036,-0.015
8.040,-0.040
8.044,-0.020
8.048,-0.025
8.052,-0.030
8.056,-0.025
8.060,-0.025
8.064,-0.035
8.068,-0.030
8.072,-0.040
8.076,-0.040
8.080,-0.035
8.084,-0.035
8.088,-0.030
8.092,-0.045
8.096,-0.040
8.100,-0.015
8.104,-0.045
8.108,-0.040
8.112,-0.025
8.116,-0.025
8.120,-0.040
8.124,-0.030
8.128,-0.040
8.132,-0.020
8.136,-0.030
8.140,-0.030
8.144,-0.035
8.148,-0.025
8.152,-0.030
8.156,-0.040
8.160,-0.050
8.164,-0.030
8.168,-0.040
8.172,-0.045
8.176,-0.045
8.180,-0.045
8.184,-0.035
8.188,-0.035
8.192,-0.045
8.196,-0.050
8.200,-0.075
8.204,-0.060
8.208,-0.065
8.212,-0.050
8.216,-0.060
8.220,-0.065
8.224,-0.045
8.228,-0.040
8.232,-0.055
8.236,-0.060
8.240,-0.065
8.244,-0.060
8.248,-0.065
8.252,-0.040
8.256,-0.040
8.260,-0.055
8.264,-0.070
8.268,-0.070
8.272,-0.065
8.276,-0.070
8.280,-0.055
8.284,-0.050
8.288,-0.055
8.292,-0.070
8.296,-0.050
8.300,-0.030
8.304,-0.050
8.308,-0.050
8.312,-0.050
8.316,-0.040
8.320,-0.050
8.324,-0.070
8.328,-0.055
8.332,-0.050
8.336,-0.060
8.340,-0.045
8.344,-0.050
8.348,-0.050
8.352,-0.055
8.356,-0.045
8.360,-0.055
8.364,-0.025
8.368,-0.065
8.372,-0.055
8.376,-0.075
8.380,-0.070
8.384,-0.050
8.388,-0.030
8.392,-0.040
8.396,-0.045
8.400,-0.055
8.404,-0.070
8.408,-0.060
8.412,-0.050
8.416,-0.040
8.420,-0.030
8.424,-0.065
8.428,-0.045
8.432,-0.065
8.436,-0.055
8.440,-0.055
8.444,-0.040
8.448,-0.065
8.452,-0.075
8.456,-0.065
8.460,-0.065
8.464,-0.050
8.468,-0.035
8.472,-0.040
8.476,-0.060
8.480,-0.055
8.484,-0.060
8.488,-0.055
8.492,-0.050
8.496,-0.055
8.500,-0.060
8.504,-0.040
8.508,-0.040
8.512,-0.040
8.516,-0.020
8.520,0.000
8.524,-0.005
8.528,0.000
8.532,-0.025
8.536,-0.030
8.540,-0.035
8.544,-0.045
8.548,-0.055
8.552,-0.075
8.556,-0.085
8.560,-0.075
8.564,-0.090
8.568,-0.075
8.572,-0.075
8.576,-0.065
8.580,-0.045
8.584,-0.055
8.588,-0.070
8.592,-0.070
8.596,-0.055
8.600,-0.065
8.604,-0.080
8.608,-0.065
8.612,-0.060
8.616,-0.070
8.620,-0.055
8.624,-0.070
8.628,-0.075
8.632,-0.040
8.636,-0.050
8.640,-0.045
8.644,-0.045
8.648,-0.040
8.652,-0.055
8.656,-0.055
8.660,-0.050
8.664,-0.040
8.668,-0.025
8.672,0.020
8.676,0.070
8.680,0.155
8.684,0.235
8.688,0.335
8.692,0.320
8.696,0.270
8.700,0.190
8.704,0.100
8.708,-0.075
8.712,-0.215
8.716,-0.250
8.720,-0.165
8.724,-0.110
8.728,-0.100
8.732,-0.085
8.736,-0.080
8.740,-0.100
8.744,-0.080
8.748,-0.065
8.752,-0.075
8.756,-0.070
8.760,-0.080
8.764,-0.075
8.768,-0.070
8.772,-0.060
8.776,-0.060
8.780,-0.065
8.784,-0.070
8.788,-0.080
8.792,-0.090
8.796,-0.070
8.800,-0.055
8.804,-0.075
8.808,-0.065
8.812,-0.060
8.816,-0.070
8.820,-0.075
8.824,-0.075
8.828,-0.075
8.832,-0.070
8.836,-0.065
8.840,-0.080
8.844,-0.095
8.848,-0.065
8.852,-0.065
8.856,-0.075
8.860,-0.070
8.864,-0.070
8.868,-0.070
8.872,-0.065
8.876,-0.060
8.880,-0.075
8.884,-0.075
8.888,-0.075
8.892,-0.060
8.896,-0.060
8.900,-0.060
8.904,-0.065
8.908,-0.065
8.912,-0.065
8.916,-0.075
8.920,-0.055
8.924,-0.035
8.928,-0.060
8.932,-0.060
8.936,-0.060
8.940,-0.060
8.944,-0.060
8.948,-0.055
8.952,-0.055
8.956,-0.050
8.960,-0.065
8.964,-0.065
8.968,-0.065
8.972,-0.055
8.976,-0.040
8.980,-0.055
8.984,-0.050
8.988,-0.040
8.992,-0.055
8.996,-0.025
9.000,-0.020
9.004,-0.025
9.008,-0.020
9.012,-0.020
9.016,-0.015
9.020,-0.015
9.024,-0.010
9.028,-0.015
9.032,-0.020
9.036,-0.015
9.040,0.000
9.044,-0.030
9.048,-0.025
9.052,-0.010
9.056,-0.040
9.060,-0.025
9.064,-0.020
9.068,-0.040
9.072,-0.035
9.076,-0.035
9.080,-0.030
9.084,-0.040
9.088,-0.025
9.092,-0.040
9.096,-0.045
9.100,-0.030
9.104,-0.030
9.108,-0.030
9.112,-0.035
9.116,-0.010
9.120,-0.020
9.124,-0.025
9.128,-0.025
9.132,-0.050
9.136,-0.040
9.140,-0.020
9.144,-0.025
9.148,-0.030
9.152,-0.035
9.156,-0.040
9.160,-0.045
9.164,-0.040
9.168,-0.035
9.172,-0.045
9.176,-0.055
9.180,-0.035
9.184,-0.055
9.188,-0.045
9.192,-0.040
9.196,-0.050
9.200,-0.050
9.204,-0.050
9.208,-0.065
9.212,-0.055
9.216,-0.060
9.220,-0.050
9.224,-0.045
9.228,-0.050
9.232,-0.065
9.236,-0.050
9.240,-0.045
9.244,-0.045
9.248,-0.065
9.252,-0.050
9.256,-0.050
9.260,-0.060
9.264,-0.040
9.268,-0.050
9.272,-0.040
9.276,-0.050
9.280,-0.065
9.284,-0.045
9.288,-0.070
9.292,-0.065
9.296,-0.050
9.300,-0.060
9.304,-0.055
9.308,-0.050
9.312,-0.040
9.316,-0.035
9.320,-0.035
9.324,-0.040
9.328,-0.025
9.332,0.000
9.336,0.005
9.340,0.000
9.344,-0.005
9.348,0.000
9.352,-0.015
9.356,-0.020
9.360,-0.025
9.364,-0.040
9.368,-0.055
9.372,-0.080
9.376,-0.080
9.380,-0.070
9.384,-0.065
9.388,-0.065
9.392,-0.045
9.396,-0.040
9.400,-0.045
9.404,-0.040
9.408,-0.025
9.412,-0.050
9.416,-0.050
9.420,-0.050
9.424,-0.050
9.428,-0.040
9.432,-0.045
9.436,-0.045
9.440,-0.040
9.444,-0.040
9.448,-0.045
9.452,-0.050
9.456,-0.040
9.460,-0.035
9.464,-0.040
9.468,-0.045
9.472,-0.055
9.476,-0.060
9.480,-0.060
9.484,-0.035
9.488,-0.040
9.492,0.005
9.496,0.050
9.500,0.115
9.504,0.195
9.508,0.285
9.512,0.310
9.516,0.250
9.520,0.160
9.524,0.000
9.528,-0.165
9.532,-0.170
9.536,-0.120
9.540,-0.065
9.544,-0.055
9.548,-0.090
9.552,-0.080
9.556,-0.090
9.560,-0.070
9.564,-0.080
9.568,-0.080
9.572,-0.070
9.576,-0.090
9.580,-0.085
9.584,-0.080
9.588,-0.085
9.592,-0.085
9.596,-0.085
9.600,-0.090
9.604,-0.085
9.608,-0.080
9.612,-0.060
9.616,-0.075
9.620,-0.090
9.624,-0.075
9.628,-0.065
9.632,-0.070
9.636,-0.070
9.640,-0.050
9.644,-0.070
9.648,-0.060
9.652,-0.055
9.656,-0.050
9.660,-0.070
9.664,-0.055
9.668,-0.045
9.672,-0.045
9.676,-0.060
9.680,-0.070
9.684,-0.060
9.688,-0.050
9.692,-0.045
9.696,-0.045
9.700,-0.040
9.704,-0.040
9.708,-0.055
9.712,-0.045
9.716,-0.045
9.720,-0.050
9.724,-0.040
9.728,-0.040
9.732,-0.050
9.736,-0.050
9.740,-0.040
9.744,-0.055
9.748,-0.045
9.752,-0.050
9.756,-0.030
9.760,-0.035
9.764,-0.010
9.768,-0.020
9.772,-0.030
9.776,-0.030
9.780,-0.025
9.784,-0.035
9.788,-0.040
9.792,-0.045
9.796,-0.020
9.800,-0.035
9.804,-0.030
9.808,-0.020
9.812,-0.025
9.816,-0.030
9.820,-0.030
9.824,0.000
9.828,-0.005
9.832,0.000
9.836,-0.015
9.840,0.010
9.844,0.000
9.848,0.000
9.852,-0.010
9.856,-0.005
9.860,-0.015
9.864,-0.010
9.868,0.010
9.872,-0.015
9.876,-0.010
9.880,-0.020
9.884,-0.015
9.888,0.000
9.892,-0.020
9.896,-0.010
9.900,-0.005
9.904,-0.030
9.908,-0.010
9.912,-0.010
9.916,-0.025
9.920,-0.015
9.924,-0.005
9.928,-0.005
9.932,-0.035
9.936,-0.025
9.940,-0.015
9.944,-0.015
9.948,-0.020
9.952,-0.010
9.956,-0.020
9.960,-0.010
9.964,-0.005
9.968,-0.020
9.972,-0.010
9.976,-0.010
9.980,-0.015
9.984,-0.010
9.988,-0.025
9.992,-0.010
9.996,-0.010
10.000,0.000
10.004,-0.030
10.008,-0.020
10.012,-0.020
10.016,-0.020
10.020,-0.025
10.024,-0.025
10.028,-0.030
10.032,-0.025
10.036,-0.030
10.040,-0.020
10.044,-0.030
10.048,-0.025
10.052,-0.025
10.056,-0.020
10.060,-0.035
10.064,-0.030
10.068,-0.020
10.072,-0.025
10.076,-0.035
10.080,-0.020
10.084,-0.055
10.088,-0.030
10.092,-0.025
10.096,-0.025
10.100,-0.035
10.104,-0.020
10.108,-0.035
10.112,-0.040
10.116,-0.035
10.120,-0.060
10.124,-0.055
10.128,-0.030
10.132,-0.050
10.136,-0.055
10.140,-0.065
10.144,-0.040
10.148,-0.045
10.152,-0.040
10.156,-0.060
10.160,-0.060
10.164,-0.060
10.168,-0.065
10.172,-0.050
10.176,-0.065
10.180,-0.065
10.184,-0.050
10.188,-0.080
10.192,-0.070
10.196,-0.060
10.200,-0.055
10.204,-0.075
10.208,-0.070
10.212,-0.065
10.216,-0.060
10.220,-0.050
10.224,-0.080
10.228,-0.070
10.232,-0.060
10.236,-0.060
10.240,-0.055
10.244,-0.080
10.248,-0.080
10.252,-0.075
10.256,-0.085
10.260,-0.080
10.264,-0.090
10.268,-0.080
10.272,-0.090
10.276,-0.090
10.280,-0.095
10.284,-0.080
10.288,-0.080
10.292,-0.070
10.296,-0.090
10.300,-0.075
10.304,-0.080
10.308,-0.060
10.312,-0.045
10.316,-0.040
10.320,-0.030
10.324,-0.030
10.328,-0.050
10.332,-0.035
10.336,-0.040
10.340,-0.055
10.344,-0.060
10.348,-0.045
10.352,-0.070
10.356,-0.080
10.360,-0.090
10.364,-0.095
10.368,-0.095
10.372,-0.095
10.376,-0.085
10.380,-0.080
10.384,-0.090
10.388,-0.090
10.392,-0.080
10.396,-0.085
10.400,-0.090
10.404,-0.090
10.408,-0.075
10.412,-0.080
10.416,-0.090
10.420,-0.085
10.424,-0.090
10.428,-0.090
10.432,-0.090
10.436,-0.080
10.440,-0.090
10.444,-0.100
10.448,-0.090
10.452,-0.090
10.456,-0.090
10.460,-0.080
10.464,-0.095
10.468,-0.060
10.472,-0.050
10.476,-0.010
10.480,0.050
10.484,0.160
10.488,0.255
10.492,0.290
10.496,0.290
10.500,0.190
10.504,0.065
10.508,-0.115
10.512,-0.245
10.516,-0.295
10.520,-0.230
10.524,-0.155
10.528,-0.145
10.532,-0.155
10.536,-0.120
10.540,-0.100
10.544,-0.120
10.548,-0.120
10.552,-0.130
10.556,-0.115
10.560,-0.120
10.564,-0.120
10.568,-0.110
10.572,-0.115
10.576,-0.120
10.580,-0.125
10.584,-0.110
10.588,-0.105
10.592,-0.135
10.596,-0.130
10.600,-0.100
10.604,-0.115
10.608,-0.130
10.612,-0.105
10.616,-0.125
10.620,-0.105
10.624,-0.105
10.628,-0.105
10.632,-0.100
10.636,-0.110
10.640,-0.130
10.644,-0.100
10.648,-0.125
10.652,-0.110
10.656,-0.115
10.660,-0.115
10.664,-0.105
10.668,-0.110
10.672,-0.110
10.676,-0.110
10.680,-0.100
10.684,-0.100
10.688,-0.110
10.692,-0.095
10.696,-0.100
10.700,-0.090
10.704,-0.090
10.708,-0.095
10.712,-0.105
10.716,-0.080
10.720,-0.100
10.724,-0.100
10.728,-0.100
10.732,-0.095
10.736,-0.095
10.740,-0.080
10.744,-0.110
10.748,-0.095
10.752,-0.090
10.756,-0.090
10.760,-0.090
10.764,-0.100
10.768,-0.095
10.772,-0.085
10.776,-0.110
10.780,-0.100
10.784,-0.100
10.788,-0.090
10.792,-0.090
10.796,-0.080
10.800,-0.085
10.804,-0.070
10.808,-0.105
10.812,-0.055
10.816,-0.075
10.820,-0.075
10.824,-0.070
10.828,-0.080
10.832,-0.075
10.836,-0.090
10.840,-0.080
10.844,-0.070
10.848,-0.090
10.852,-0.090
10.856,-0.085
10.860,-0.105
10.864,-0.105
10.868,-0.120
10.872,-0.110
10.876,-0.105
10.880,-0.105
10.884,-0.110
10.888,-0.095
10.892,-0.110
10.896,-0.120
10.900,-0.095
10.904,-0.095
10.908,-0.110
10.912,-0.095
10.916,-0.110
10.920,-0.120
10.924,-0.100
10.928,-0.085
10.932,-0.110
10.936,-0.110
10.940,-0.095
10.944,-0.105
10.948,-0.105
10.952,-0.120
10.956,-0.090
10.960,-0.100
10.964,-0.095
10.968,-0.105
10.972,-0.105
10.976,-0.110
10.980,-0.105
10.984,-0.140
10.988,-0.130
10.992,-0.120
10.996,-0.110
11.000,-0.125
11.004,-0.115
11.008,-0.135
11.012,-0.125
11.016,-0.110
11.020,-0.090
11.024,-0.125
11.028,-0.140
11.032,-0.140
11.036,-0.140
11.040,-0.140
11.044,-0.120
11.048,-0.115
11.052,-0.130
11.056,-0.140
11.060,-0.140
11.064,-0.135
11.068,-0.120
11.072,-0.120
11.076,-0.130
11.080,-0.120
11.084,-0.140
11.088,-0.130
11.092,-0.120
11.096,-0.130
11.100,-0.145
11.104,-0.130
11.108,-0.120
11.112,-0.110
11.116,-0.110
11.120,-0.095
11.124,-0.080
11.128,-0.075
11.132,-0.080
11.136,-0.085
11.140,-0.080
11.144,-0.100
11.148,-0.105
11.152,-0.130
11.156,-0.125
11.160,-0.135
11.164,-0.145
11.168,-0.160
11.172,-0.155
11.176,-0.150
11.180,-0.150
11.184,-0.135
11.188,-0.135
11.192,-0.150
11.196,-0.155
11.200,-0.155
11.204,-0.155
11.208,-0.150
11.212,-0.135
11.216,-0.155
11.220,-0.145
11.224,-0.140
11.228,-0.140
11.232,-0.140
11.236,-0.155
11.240,-0.155
11.244,-0.145
11.248,-0.160
11.252,-0.160
11.256,-0.150
11.260,-0.140
11.264,-0.155
11.268,-0.145
11.272,-0.155
11.276,-0.145
11.280,-0.130
11.284,-0.100
11.288,-0.070
11.292,0.000
11.296,0.090
11.300,0.190
11.304,0.270
11.308,0.260
11.312,0.155
11.316,-0.040
11.320,-0.255
11.324,-0.330
11.328,-0.290
11.332,-0.215
11.336,-0.185
11.340,-0.190
11.344,-0.190
11.348,-0.175
11.352,-0.150
11.356,-0.185
11.360,-0.160
11.364,-0.170
11.368,-0.175
11.372,-0.175
11.376,-0.180
11.380,-0.170
11.384,-0.150
11.388,-0.185
11.392,-0.160
11.396,-0.170
11.400,-0.160
11.404,-0.175
11.408,-0.140
11.412,-0.150
11.416,-0.165
11.420,-0.160
11.424,-0.170
11.428,-0.180
11.432,-0.145
11.436,-0.150
11.440,-0.145
11.444,-0.150
11.448,-0.130
11.452,-0.150
11.456,-0.140
11.460,-0.145
11.464,-0.140
11.468,-0.140
11.472,-0.145
11.476,-0.160
11.480,-0.130
11.484,-0.125
11.488,-0.145
11.492,-0.140
11.496,-0.110
11.500,-0.105
11.504,-0.125
11.508,-0.145
11.512,-0.125
11.516,-0.115
11.520,-0.125
11.524,-0.115
11.528,-0.110
11.532,-0.140
11.536,-0.115
11.540,-0.120
11.544,-0.135
11.548,-0.140
11.552,-0.135
11.556,-0.130
11.560,-0.115
11.564,-0.105
11.568,-0.105
11.572,-0.110
11.576,-0.110
11.580,-0.130
11.584,-0.130
11.588,-0.115
11.592,-0.125
11.596,-0.115
11.600,-0.100
11.604,-0.070
11.608,-0.100
11.612,-0.090
11.616,-0.065
11.620,-0.100
11.624,-0.080
11.628,-0.055
11.632,-0.050
11.636,-0.055
11.640,-0.065
11.644,-0.070
11.648,-0.075
11.652,-0.045
11.656,-0.060
11.660,-0.065
11.664,-0.055
11.668,-0.055
11.672,-0.080
11.676,-0.080
11.680,-0.070
11.684,-0.070
11.688,-0.055
11.692,-0.050
11.696,-0.085
11.700,-0.070
11.704,-0.065
11.708,-0.080
11.712,-0.065
11.716,-0.075
11.720,-0.060
11.724,-0.045
11.728,-0.070
11.732,-0.055
11.736,-0.050
11.740,-0.040
11.744,-0.035
11.748,-0.045
11.752,-0.065
11.756,-0.050
11.760,-0.075
11.764,-0.070
11.768,-0.060
11.772,-0.070
11.776,-0.060
11.780,-0.060
11.784,-0.055
11.788,-0.075
11.792,-0.065
11.796,-0.060
11.800,-0.065
11.804,-0.075
11.808,-0.065
11.812,-0.075
11.816,-0.080
11.820,-0.090
11.824,-0.085
11.828,-0.065
11.832,-0.080
11.836,-0.070
11.840,-0.105
11.844,-0.090
11.848,-0.100
11.852,-0.085
11.856,-0.075
11.860,-0.085
11.864,-0.095
11.868,-0.095
11.872,-0.080
11.876,-0.090
11.880,-0.095
11.884,-0.095
11.888,-0.100
11.892,-0.095
11.896,-0.095
11.900,-0.095
11.904,-0.080
11.908,-0.090
11.912,-0.070
11.916,-0.090
11.920,-0.075
11.924,-0.075
11.928,-0.065
11.932,-0.080
11.936,-0.105
11.940,-0.080
11.944,-0.070
11.948,-0.060
11.952,-0.040
11.956,-0.045
11.960,-0.025
11.964,-0.045
11.968,-0.035
11.972,-0.045
11.976,-0.035
11.980,-0.045
11.984,-0.075
11.988,-0.080
11.992,-0.090
11.996,-0.080
12.000,-0.105
12.004,-0.120
12.008,-0.105
12.012,-0.105
12.016,-0.100
12.020,-0.105
12.024,-0.095
12.028,-0.090
12.032,-0.100
12.036,-0.095
12.040,-0.105
12.044,-0.100
12.048,-0.100
12.052,-0.100
12.056,-0.115
12.060,-0.090
12.064,-0.100
12.068,-0.120
12.072,-0.120
12.076,-0.110
12.080,-0.110
12.084,-0.105
12.088,-0.105
12.092,-0.095
12.096,-0.080
12.100,-0.100
12.104,-0.100
12.108,-0.075
12.112,-0.065
12.116,-0.020
12.120,0.010
12.124,0.085
12.128,0.180
12.132,0.230
12.136,0.255
12.140,0.180
12.144,0.050
12.148,-0.105
12.152,-0.250
12.156,-0.245
12.160,-0.170
12.164,-0.155
12.168,-0.175
12.172,-0.175
12.176,-0.145
12.180,-0.130
12.184,-0.140
12.188,-0.140
12.192,-0.150
12.196,-0.130
12.200,-0.150
12.204,-0.135
12.208,-0.140
12.212,-0.140
12.216,-0.150
12.220,-0.145
12.224,-0.130
12.228,-0.120
12.232,-0.125
12.236,-0.130
12.240,-0.145
12.244,-0.130
12.248,-0.155
12.252,-0.145
12.256,-0.160
12.260,-0.125
12.264,-0.140
12.268,-0.145
12.272,-0.140
12.276,-0.130
12.280,-0.145
12.284,-0.135
12.288,-0.145
12.292,-0.140
12.296,-0.145
12.300,-0.135
12.304,-0.155
12.308,-0.130
12.312,-0.120
12.316,-0.130
12.320,-0.130
12.324,-0.140
12.328,-0.140
12.332,-0.135
12.336,-0.135
12.340,-0.125
12.344,-0.125
12.348,-0.120
12.352,-0.115
12.356,-0.105
12.360,-0.120
12.364,-0.120
12.368,-0.105
12.372,-0.145
12.376,-0.115
12.380,-0.105
12.384,-0.095
12.388,-0.095
12.392,-0.115
12.396,-0.110
12.400,-0.110
12.404,-0.125
12.408,-0.115
12.412,-0.110
12.416,-0.100
12.420,-0.110
12.424,-0.110
12.428,-0.080
12.432,-0.085
12.436,-0.095
12.440,-0.085
12.444,-0.085
12.448,-0.095
12.452,-0.075
12.456,-0.085
12.460,-0.080
12.464,-0.075
12.468,-0.080
12.472,-0.075
12.476,-0.085
12.480,-0.085
12.484,-0.095
12.488,-0.105
12.492,-0.100
12.496,-0.105
12.500,-0.095
12.504,-0.100
12.508,-0.105
12.512,-0.080
12.516,-0.080
12.520,-0.090
12.524,-0.085
12.528,-0.105
12.532,-0.095
12.536,-0.095
12.540,-0.085
12.544,-0.075
12.548,-0.080
12.552,-0.070
12.556,-0.065
12.560,-0.080
12.564,-0.085
12.568,-0.085
12.572,-0.095
12.576,-0.095
12.580,-0.070
12.584,-0.095
12.588,-0.085
12.592,-0.090
12.596,-0.090
12.600,-0.075
12.604,-0.080
12.608,-0.105
12.612,-0.115
12.616,-0.100
12.620,-0.110
12.624,-0.110
12.628,-0.120
12.632,-0.105
12.636,-0.110
12.640,-0.115
12.644,-0.100
12.648,-0.115
12.652,-0.115
12.656,-0.110
12.660,-0.120
12.664,-0.110
12.668,-0.105
12.672,-0.110
12.676,-0.115
12.680,-0.105
12.684,-0.105
12.688,-0.105
12.692,-0.105
12.696,-0.120
12.700,-0.120
12.704,-0.120
12.708,-0.105
12.712,-0.100
12.716,-0.130
12.720,-0.110
12.724,-0.105
12.728,-0.085
12.732,-0.090
12.736,-0.085
12.740,-0.095
12.744,-0.095
12.748,-0.115
12.752,-0.095
12.756,-0.110
12.760,-0.120
12.764,-0.115
12.768,-0.095
12.772,-0.130
12.776,-0.095
12.780,-0.115
12.784,-0.095
12.788,-0.095
12.792,-0.075
12.796,-0.080
12.800,-0.070
12.804,-0.100
12.808,-0.095
12.812,-0.100
12.816,-0.075
12.820,-0.115
12.824,-0.135
12.828,-0.140
12.832,-0.140
12.836,-0.170
12.840,-0.175
12.844,-0.160
12.848,-0.130
12.852,-0.160
12.856,-0.130
12.860,-0.140
12.864,-0.155
12.868,-0.155
12.872,-0.145
12.876,-0.180
12.880,-0.155
12.884,-0.170
12.888,-0.150
12.892,-0.155
12.896,-0.170
12.900,-0.165
12.904,-0.165
12.908,-0.175
12.912,-0.160
12.916,-0.175
12.920,-0.165
12.924,-0.185
12.928,-0.155
12.932,-0.155
12.936,-0.180
12.940,-0.185
12.944,-0.185
12.948,-0.145
12.952,-0.100
12.956,-0.005
12.960,0.090
12.964,0.170
12.968,0.215
12.972,0.185
12.976,0.095
12.980,-0.090
12.984,-0.270
12.988,-0.325
12.992,-0.275
12.996,-0.205
13.000,-0.175
13.004,-0.195
13.008,-0.210
13.012,-0.195
13.016,-0.185
13.020,-0.200
13.024,-0.205
13.028,-0.210
13.032,-0.220
13.036,-0.210
13.040,-0.195
13.044,-0.220
13.048,-0.185
13.052,-0.205
13.056,-0.205
13.060,-0.185
13.064,-0.185
13.068,-0.195
13.072,-0.190
13.076,-0.185
13.080,-0.205
13.084,-0.185
13.088,-0.195
13.092,-0.185
13.096,-0.195
13.100,-0.195
13.104,-0.185
13.108,-0.170
13.112,-0.170
13.116,-0.175
13.120,-0.185
13.124,-0.165
13.128,-0.185
13.132,-0.170
13.136,-0.175
13.140,-0.160
13.144,-0.180
13.148,-0.160
13.152,-0.160
13.156,-0.175
13.160,-0.175
13.164,-0.160
13.168,-0.160
13.172,-0.165
13.176,-0.160
13.180,-0.150
13.184,-0.150
13.188,-0.140
13.192,-0.145
13.196,-0.135
13.200,-0.155
13.204,-0.160
13.208,-0.175
13.212,-0.140
13.216,-0.125
13.220,-0.145
13.224,-0.150
13.228,-0.140
13.232,-0.110
13.236,-0.140
13.240,-0.140
13.244,-0.135
13.248,-0.125
13.252,-0.145
13.256,-0.135
13.260,-0.105
13.264,-0.115
13.268,-0.125
13.272,-0.110
13.276,-0.090
13.280,-0.090
13.284,-0.090
13.288,-0.075
13.292,-0.085
13.296,-0.070
13.300,-0.080
13.304,-0.075
13.308,-0.085
13.312,-0.090
13.316,-0.065
13.320,-0.085
13.324,-0.095
13.328,-0.085
13.332,-0.090
13.336,-0.105
13.340,-0.090
13.344,-0.080
13.348,-0.090
13.352,-0.075
13.356,-0.075
13.360,-0.080
13.364,-0.075
13.368,-0.070
13.372,-0.075
13.376,-0.065
13.380,-0.060
13.384,-0.060
13.388,-0.065
13.392,-0.070
13.396,-0.060
13.400,-0.065
13.404,-0.060
13.408,-0.070
13.412,-0.065
13.416,-0.055
13.420,-0.065
13.424,-0.060
13.428,-0.050
13.432,-0.055
13.436,-0.065
13.440,-0.050
13.444,-0.075
13.448,-0.065
13.452,-0.045
13.456,-0.070
13.460,-0.065
13.464,-0.075
13.468,-0.060
13.472,-0.085
13.476,-0.075
13.480,-0.050
13.484,-0.035
13.488,-0.065
13.492,-0.055
13.496,-0.050
13.500,-0.045
13.504,-0.055
13.508,-0.055
13.512,-0.040
13.516,-0.050
13.520,-0.075
13.524,-0.055
13.528,-0.055
13.532,-0.030
13.536,-0.040
13.540,-0.040
13.544,-0.030
13.548,-0.050
13.552,-0.030
13.556,-0.025
13.560,-0.030
13.564,-0.040
13.568,-0.050
13.572,-0.040
13.576,-0.035
13.580,-0.030
13.584,-0.060
13.588,-0.045
13.592,-0.060
13.596,-0.035
13.600,-0.065
13.604,-0.050
13.608,-0.030
13.612,-0.030
13.616,-0.035
13.620,-0.020
13.624,-0.030
13.628,-0.015
13.632,0.005
13.636,0.005
13.640,0.000
13.644,0.025
13.648,0.025
13.652,0.025
13.656,0.005
13.660,0.020
13.664,0.005
13.668,-0.020
13.672,-0.030
13.676,-0.060
13.680,-0.065
13.684,-0.045
13.688,-0.045
13.692,-0.050
13.696,-0.005
13.700,-0.015
13.704,-0.025
13.708,-0.040
13.712,-0.020
13.716,-0.035
13.720,-0.025
13.724,-0.025
13.728,-0.025
13.732,-0.020
13.736,-0.020
13.740,-0.015
13.744,-0.035
13.748,-0.025
13.752,-0.040
13.756,-0.020
13.760,-0.030
13.764,-0.020
13.768,-0.020
13.772,-0.005
13.776,0.000
13.780,-0.005
13.784,-0.010
13.788,0.010
13.792,0.005
13.796,0.060
13.800,0.140
13.804,0.205
13.808,0.315
13.812,0.395
13.816,0.395
13.820,0.340
13.824,0.245
13.828,0.115
13.832,-0.055
13.836,-0.185
13.840,-0.175
13.844,-0.105
13.848,-0.050
13.852,-0.045
13.856,-0.040
13.860,-0.005
13.864,-0.025
13.868,-0.030
13.872,-0.025
13.876,-0.035
13.880,-0.045
13.884,-0.025
13.888,-0.050
13.892,-0.025
13.896,-0.040
13.900,-0.045
13.904,-0.040
13.908,-0.035
13.912,-0.040
13.916,-0.025
13.920,-0.040
13.924,-0.020
13.928,-0.020
13.932,-0.025
13.936,-0.045
13.940,-0.030
13.944,-0.025
13.948,-0.005
13.952,-0.010
13.956,-0.020
13.960,-0.030
13.964,-0.045
13.968,-0.065
13.972,-0.035
13.976,-0.025
13.980,-0.055
13.984,-0.055
13.988,-0.035
13.992,-0.045
13.996,-0.030
14.000,-0.025
14.004,-0.030
14.008,-0.045
14.012,-0.030
14.016,-0.030
14.020,-0.035
14.024,-0.045
14.028,-0.045
14.032,-0.055
14.036,-0.045
14.040,-0.040
14.044,-0.035
14.048,-0.030
14.052,-0.025
14.056,-0.040
14.060,-0.035
14.064,-0.035
14.068,-0.020
14.072,-0.035
14.076,-0.025
14.080,-0.030
14.084,-0.050
14.088,-0.040
14.092,-0.030
14.096,-0.040
14.100,-0.040
14.104,-0.025
14.108,-0.025
14.112,-0.025
14.116,0.000
14.120,-0.005
14.124,0.000
14.128,0.015
14.132,0.000
14.136,0.030
14.140,0.020
14.144,0.020
14.148,0.025
14.152,0.020
14.156,0.000
14.160,0.000
14.164,-0.010
14.168,0.000
14.172,-0.015
14.176,-0.005
14.180,0.005
14.184,-0.025
14.188,-0.005
14.192,-0.005
14.196,0.000
14.200,-0.010
14.204,0.005
14.208,-0.015
14.212,0.000
14.216,-0.010
14.220,-0.010
14.224,-0.005
14.228,-0.005
14.232,0.010
14.236,0.005
14.240,0.010
14.244,0.005
14.248,0.005
14.252,0.000
14.256,0.010
14.260,0.015
14.264,0.005
14.268,-0.005
14.272,0.005
14.276,0.020
14.280,0.005
14.284,-0.025
14.288,-0.010
14.292,0.000
14.296,-0.010
14.300,-0.010
14.304,-0.005
14.308,0.000
14.312,0.000
14.316,-0.015
14.320,0.000
14.324,0.005
14.328,-0.005
14.332,-0.010
14.336,-0.020
14.340,-0.005
14.344,0.000
14.348,-0.010
14.352,-0.020
14.356,-0.010
14.360,-0.025
14.364,-0.010
14.368,-0.005
14.372,-0.005
14.376,-0.005
14.380,-0.005
14.384,0.000
14.388,-0.020
14.392,-0.010
14.396,-0.005
14.400,0.025
14.404,0.005
14.408,0.000
14.412,-0.005
14.416,-0.005
14.420,-0.005
14.424,0.000
14.428,-0.010
14.432,-0.005
14.436,0.000
14.440,-0.015
14.444,0.005
14.448,0.005
14.452,0.005
14.456,0.010
14.460,-0.015
14.464,-0.025
14.468,0.005
14.472,0.040
14.476,0.045
14.480,0.040
14.484,0.065
14.488,0.050
14.492,0.055
14.496,0.040
14.500,0.010
14.504,0.015
14.508,0.025
14.512,-0.005
14.516,0.000
14.520,-0.035
14.524,-0.025
14.528,-0.005
14.532,0.000
14.536,-0.005
14.540,-0.010
14.544,0.000
14.548,0.015
14.552,-0.005
14.556,0.000
14.560,0.000
14.564,0.005
14.568,0.005
14.572,0.010
14.576,0.005
14.580,0.020
14.584,0.020
14.588,0.005
14.592,-0.005
14.596,0.010
14.600,0.010
14.604,0.015
14.608,0.020
14.612,0.025
14.616,0.015
14.620,0.010
14.624,0.030
14.628,0.045
14.632,0.115
14.636,0.170
14.640,0.235
14.644,0.325
14.648,0.395
14.652,0.400
14.656,0.375
14.660,0.300
14.664,0.145
14.668,-0.020
14.672,-0.110
14.676,-0.085
14.680,-0.025
14.684,-0.015
14.688,-0.015
14.692,-0.020
14.696,-0.020
14.700,-0.010
14.704,-0.005
14.708,0.000
14.712,-0.005
14.716,-0.005
14.720,-0.010
14.724,-0.010
14.728,0.005
14.732,-0.020
14.736,-0.015
14.740,-0.005
14.744,-0.020
14.748,-0.015
14.752,-0.025
14.756,-0.020
14.760,-0.025
14.764,-0.010
14.768,-0.010
14.772,-0.030
14.776,-0.010
14.780,-0.010
14.784,-0.005
14.788,-0.005
14.792,-0.010
14.796,0.000
14.800,-0.005
14.804,-0.005
14.808,0.000
14.812,0.010
14.816,0.000
14.820,-0.005
14.824,0.000
14.828,0.000
14.832,0.010
14.836,-0.005
14.840,0.005
14.844,0.015
14.848,0.005
14.852,0.000
14.856,0.010
14.860,0.010
14.864,0.005
14.868,0.015
14.872,0.015
14.876,-0.005
14.880,-0.015
14.884,0.005
14.888,-0.005
14.892,0.000
14.896,0.000
14.900,0.000
14.904,0.010
14.908,0.010
14.912,-0.010
14.916,-0.005
14.920,0.000
14.924,-0.015
14.928,-0.005
14.932,-0.005
14.936,0.005
14.940,0.005
14.944,0.005
14.948,0.025
14.952,0.035
14.956,0.055
14.960,0.045
14.964,0.055
14.968,0.035
14.972,0.050
14.976,0.045
14.980,0.060
14.984,0.065
14.988,0.065
14.992,0.055
14.996,0.045
15.000,0.055
15.004,0.050
15.008,0.050
15.012,0.035
15.016,0.030
15.020,0.050
15.024,0.050
15.028,0.035
15.032,0.035
15.036,0.020
15.040,0.050
15.044,0.040
15.048,0.030
15.052,0.055
15.056,0.030
15.060,0.035
15.064,0.035
15.068,0.035
15.072,0.025
15.076,0.030
15.080,0.040
15.084,0.035
15.088,0.045
15.092,0.045
15.096,0.045
15.100,0.040
15.104,0.040
15.108,0.030
15.112,0.035
15.116,0.030
15.120,0.045
15.124,0.040
15.128,0.035
15.132,0.045
15.136,0.005
15.140,0.035
15.144,0.020
15.148,0.030
15.152,0.020
15.156,0.040
15.160,0.040
15.164,0.035
15.168,0.030
15.172,0.020
15.176,0.010
15.180,0.025
15.184,0.015
15.188,0.015
15.192,0.010
15.196,0.005
15.200,0.000
15.204,0.000
15.208,0.000
15.212,0.000
15.216,-0.015
15.220,0.005
15.224,0.005
15.228,0.010
15.232,0.000
15.236,0.020
15.240,-0.020
15.244,0.000
15.248,0.010
15.252,0.005
15.256,-0.010
15.260,0.000
15.264,0.015
15.268,0.010
15.272,-0.010
15.276,-0.010
15.280,0.005
15.284,0.005
15.288,0.010
15.292,0.000
15.296,0.000
15.300,-0.005
15.304,0.005
15.308,0.010
15.312,0.020
15.316,0.040
15.320,0.045
15.324,0.055
15.328,0.050
15.332,0.015
15.336,0.010
15.340,0.015
15.344,0.015
15.348,0.000
15.352,-0.005
15.356,-0.015
15.360,-0.020
15.364,-0.020
15.368,-0.040
15.372,-0.020
15.376,-0.015
15.380,-0.005
15.384,-0.020
15.388,-0.005
15.392,-0.010
15.396,-0.015
15.400,-0.005
15.404,-0.010
15.408,-0.040
15.412,-0.020
15.416,-0.015
15.420,-0.015
15.424,-0.010
15.428,-0.010
15.432,-0.030
15.436,-0.030
15.440,-0.030
15.444,-0.030
15.448,-0.030
15.452,-0.050
15.456,-0.025
15.460,-0.020
15.464,-0.020
15.468,-0.010
15.472,0.000
15.476,0.045
15.480,0.100
15.484,0.170
15.488,0.275
15.492,0.355
15.496,0.330
15.500,0.255
15.504,0.100
15.508,-0.075
15.512,-0.180
15.516,-0.170
15.520,-0.080
15.524,-0.050
15.528,-0.075
15.532,-0.085
15.536,-0.065
15.540,-0.060
15.544,-0.045
15.548,-0.055
15.552,-0.055
15.556,-0.060
15.560,-0.050
15.564,-0.055
15.568,-0.040
15.572,-0.045
15.576,-0.030
15.580,-0.065
15.584,-0.055
15.588,-0.060
15.592,-0.060
15.596,-0.060
15.600,-0.045
15.604,-0.060
15.608,-0.045
15.612,-0.040
15.616,-0.030
15.620,-0.030
15.624,-0.040
15.628,-0.050
15.632,-0.040
15.636,-0.040
15.640,-0.025
15.644,-0.040
15.648,-0.040
15.652,-0.060
15.656,-0.040
15.660,-0.045
15.664,-0.025
15.668,-0.025
15.672,-0.020
15.676,-0.030
15.680,-0.020
15.684,-0.025
15.688,-0.040
15.692,-0.035
15.696,-0.020
15.700,-0.030
15.704,-0.020
15.708,-0.030
15.712,-0.025
15.716,-0.010
15.720,-0.005
15.724,-0.025
15.728,0.005
15.732,-0.015
15.736,-0.030
15.740,-0.010
15.744,-0.020
15.748,-0.030
15.752,-0.020
15.756,-0.015
15.760,-0.035
15.764,-0.015
15.768,-0.030
15.772,-0.010
15.776,-0.005
15.780,-0.030
15.784,-0.015
15.788,-0.005
15.792,-0.005
15.796,-0.005
15.800,0.005
15.804,0.000
15.808,0.005
15.812,0.020
15.816,0.015
15.820,0.025
15.824,0.010
15.828,0.025
15.832,0.015
15.836,0.025
15.840,0.015
15.844,0.025
15.848,0.035
15.852,0.015
15.856,0.000
15.860,0.000
15.864,0.015
15.868,0.020
15.872,0.005
15.876,0.005
15.880,0.010
15.884,0.000
15.888,-0.010
15.892,0.005
15.896,0.000
15.900,-0.010
15.904,0.005
15.908,0.005
15.912,0.000
15.916,0.000
15.920,0.005
15.924,0.030
15.928,0.020
15.932,0.020
15.936,0.015
15.940,0.030
15.944,0.005
15.948,0.000
15.952,-0.010
15.956,0.015
15.960,0.010
15.964,0.005
15.968,0.005
15.972,0.005
15.976,0.005
15.980,0.010
15.984,0.000
15.988,0.020
15.992,0.005
15.996,0.015
16.000,-0.005
16.004,-0.005
16.008,0.000
16.012,-0.010
16.016,-0.005
16.020,-0.005
16.024,-0.015
16.028,0.000
16.032,0.000
16.036,-0.010
16.040,0.000
16.044,-0.005
16.048,-0.005
16.052,-0.005
16.056,-0.010
16.060,-0.030
16.064,-0.010
16.068,-0.010
16.072,-0.010
16.076,-0.030
16.080,0.005
16.084,0.000
16.088,-0.010
16.092,-0.010
16.096,-0.020
16.100,-0.030
16.104,-0.020
16.108,-0.045
16.112,-0.020
16.116,-0.015
16.120,0.000
16.124,-0.020
16.128,-0.020
16.132,-0.025
16.136,-0.020
16.140,-0.015
16.144,0.000
16.148,-0.030
16.152,-0.025
16.156,-0.040
16.160,-0.030
16.164,-0.045
16.168,-0.020
16.172,-0.020
16.176,-0.035
16.180,-0.035
16.184,-0.040
16.188,-0.035
16.192,-0.035
16.196,-0.030
16.200,-0.030
16.204,-0.040
16.208,-0.035
16.212,-0.050
16.216,-0.050
16.220,-0.060
16.224,-0.045
16.228,-0.055
16.232,-0.050
16.236,-0.025
16.240,-0.040
16.244,-0.045
16.248,-0.045
16.252,-0.040
16.256,-0.060
16.260,-0.050
16.264,-0.030
16.268,-0.060
16.272,-0.050
16.276,-0.065
16.280,-0.040
16.284,-0.025
16.288,-0.030
16.292,-0.010
16.296,0.010
16.300,0.000
16.304,-0.020
16.308,-0.025
16.312,-0.025
16.316,-0.050
16.320,-0.060
16.324,-0.060
16.328,-0.055
16.332,-0.050
16.336,-0.090
16.340,-0.090
16.344,-0.090
16.348,-0.080
16.352,-0.085
16.356,-0.050
16.360,-0.060
16.364,-0.050
16.368,-0.065
16.372,-0.050
16.376,-0.070
16.380,-0.055
16.384,-0.080
16.388,-0.070
16.392,-0.060
16.396,-0.060
16.400,-0.060
16.404,-0.055
16.408,-0.070
16.412,-0.065
16.416,-0.065
16.420,-0.045
16.424,-0.055
16.428,-0.055
16.432,-0.055
16.436,-0.075
16.440,-0.045
16.444,0.010
16.448,0.045
16.452,0.095
16.456,0.200
16.460,0.295
16.464,0.340
16.468,0.335
16.472,0.300
16.476,0.175
16.480,-0.020
16.484,-0.180
16.488,-0.240
16.492,-0.170
16.496,-0.110
16.500,-0.085
16.504,-0.095
16.508,-0.070
16.512,-0.070
16.516,-0.070
16.520,-0.095
16.524,-0.085
16.528,-0.075
16.532,-0.080
16.536,-0.070
16.540,-0.055
16.544,-0.070
16.548,-0.060
16.552,-0.065
16.556,-0.085
16.560,-0.070
16.564,-0.070
16.568,-0.060
16.572,-0.085
16.576,-0.080
16.580,-0.060
16.584,-0.075
16.588,-0.065
16.592,-0.060
16.596,-0.060
16.600,-0.060
16.604,-0.065
16.608,-0.065
16.612,-0.065
16.616,-0.065
16.620,-0.080
16.624,-0.080
16.628,-0.070
16.632,-0.065
16.636,-0.070
16.640,-0.050
16.644,-0.070
16.648,-0.075
16.652,-0.060
16.656,-0.060
16.660,-0.065
16.664,-0.060
16.668,-0.065
16.672,-0.065
16.676,-0.050
16.680,-0.055
16.684,-0.055
16.688,-0.065
16.692,-0.060
16.696,-0.055
16.700,-0.040
16.704,-0.055
16.708,-0.050
16.712,-0.050
16.716,-0.030
16.720,-0.035
16.724,-0.050
16.728,-0.050
16.732,-0.060
16.736,-0.065
16.740,-0.060
16.744,-0.055
16.748,-0.040
16.752,-0.045
16.756,-0.045
16.760,-0.035
16.764,-0.015
16.768,-0.035
16.772,-0.015
16.776,-0.010
16.780,-0.020
16.784,0.000
16.788,0.005
16.792,0.000
16.796,0.000
16.800,0.000
16.804,0.020
16.808,0.010
16.812,-0.005
16.816,0.005
16.820,-0.005
16.824,-0.010
16.828,0.000
16.832,-0.015
16.836,-0.005
16.840,-0.025
16.844,-0.020
16.848,0.000
16.852,0.000
16.856,-0.010
16.860,-0.005
16.864,0.000
16.868,0.000
16.872,-0.010
16.876,-0.005
16.880,-0.020
16.884,-0.020
16.888,-0.020
16.892,-0.010
16.896,0.000
16.900,-0.005
16.904,-0.010
16.908,-0.015
16.912,-0.010
16.916,-0.015
16.920,0.000
16.924,-0.005
16.928,0.000
16.932,-0.025
16.936,-0.020
16.940,-0.025
16.944,-0.005
16.948,0.000
16.952,0.000
16.956,0.000
16.960,0.000
16.964,-0.020
16.968,-0.020
16.972,-0.015
16.976,-0.010
16.980,-0.010
16.984,-0.020
16.988,-0.030
16.992,-0.010
16.996,-0.020
17.000,-0.025
17.004,-0.020
17.008,-0.020
17.012,-0.025
17.016,-0.035
17.020,-0.045
17.024,-0.020
17.028,-0.040
17.032,-0.025
17.036,-0.015
17.040,-0.035
17.044,-0.050
17.048,-0.030
17.052,-0.030
17.056,-0.045
17.060,-0.055
17.064,-0.050
17.068,-0.055
17.072,-0.040
17.076,-0.030
17.080,-0.015
17.084,-0.010
17.088,0.000
17.092,0.000
17.096,0.000
17.100,0.010
17.104,0.000
17.108,-0.020
17.112,0.000
17.116,-0.030
17.120,-0.040
17.124,-0.045
17.128,-0.060
17.132,-0.080
17.136,-0.060
17.140,-0.075
17.144,-0.050
17.148,-0.035
17.152,-0.060
17.156,-0.060
17.160,-0.060
17.164,-0.070
17.168,-0.065
17.172,-0.070
17.176,-0.065
17.180,-0.070
17.184,-0.075
17.188,-0.080
17.192,-0.075
17.196,-0.085
17.200,-0.060
17.204,-0.075
17.208,-0.065
17.212,-0.065
17.216,-0.075
17.220,-0.075
17.224,-0.060
17.228,-0.065
17.232,-0.080
17.236,-0.075
17.240,-0.055
17.244,-0.060
17.248,-0.025
17.252,0.010
17.256,0.075
17.260,0.150
17.264,0.235
17.268,0.315
17.272,0.315
17.276,0.275
17.280,0.195
17.284,0.025
17.288,-0.175
17.292,-0.235
17.296,-0.165
17.300,-0.125
17.304,-0.120
17.308,-0.120
17.312,-0.095
17.316,-0.090
17.320,-0.110
17.324,-0.105
17.328,-0.095
17.332,-0.100
17.336,-0.100
17.340,-0.115
17.344,-0.095
17.348,-0.090
17.352,-0.100
17.356,-0.105
17.360,-0.090
17.364,-0.095
17.368,-0.105
17.372,-0.080
17.376,-0.080
17.380,-0.095
17.384,-0.090
17.388,-0.095
17.392,-0.090
17.396,-0.080
17.400,-0.075
17.404,-0.075
17.408,-0.080
17.412,-0.100
17.416,-0.085
17.420,-0.095
17.424,-0.105
17.428,-0.080
17.432,-0.085
17.436,-0.090
17.440,-0.095
17.444,-0.100
17.448,-0.080
17.452,-0.100
17.456,-0.095
17.460,-0.080
17.464,-0.080
17.468,-0.080
17.472,-0.090
17.476,-0.095
17.480,-0.075
17.484,-0.090
17.488,-0.080
17.492,-0.090
17.496,-0.095
17.500,-0.095
17.504,-0.105
17.508,-0.090
17.512,-0.105
17.516,-0.085
17.520,-0.095
17.524,-0.100
17.528,-0.105
17.532,-0.100
17.536,-0.120
17.540,-0.115
17.544,-0.110
17.548,-0.130
17.552,-0.085
17.556,-0.100
17.560,-0.080
17.564,-0.115
17.568,-0.080
17.572,-0.065
17.576,-0.080
17.580,-0.070
17.584,-0.095
17.588,-0.055
17.592,-0.040
17.596,-0.055
17.600,-0.070
17.604,-0.050
17.608,-0.060
17.612,-0.040
17.616,-0.060
17.620,-0.055
17.624,-0.055
17.628,-0.060
17.632,-0.050
17.636,-0.070
17.640,-0.065
17.644,-0.065
17.648,-0.065
17.652,-0.075
17.656,-0.065
17.660,-0.040
17.664,-0.075
17.668,-0.075
17.672,-0.085
17.676,-0.065
17.680,-0.060
17.684,-0.055
17.688,-0.070
17.692,-0.060
17.696,-0.055
17.700,-0.060
17.704,-0.070
17.708,-0.070
17.712,-0.060
17.716,-0.065
17.720,-0.050
17.724,-0.060
17.728,-0.065
17.732,-0.045
17.736,-0.060
17.740,-0.070
17.744,-0.070
17.748,-0.055
17.752,-0.075
17.756,-0.080
17.760,-0.070
17.764,-0.060
17.768,-0.075
17.772,-0.060
17.776,-0.080
17.780,-0.090
17.784,-0.095
17.788,-0.070
17.792,-0.075
17.796,-0.080
17.800,-0.070
17.804,-0.060
17.808,-0.080
17.812,-0.095
17.816,-0.090
17.820,-0.060
17.824,-0.065
17.828,-0.065
17.832,-0.075
17.836,-0.080
17.840,-0.060
17.844,-0.085
17.848,-0.085
17.852,-0.075
17.856,-0.085
17.860,-0.080
17.864,-0.070
17.868,-0.065
17.872,-0.085
17.876,-0.075
17.880,-0.080
17.884,-0.060
17.888,-0.100
17.892,-0.075
17.896,-0.075
17.900,-0.090
17.904,-0.085
17.908,-0.090
17.912,-0.080
17.916,-0.085
17.920,-0.080
17.924,-0.070
17.928,-0.075
17.932,-0.080
17.936,-0.080
17.940,-0.070
17.944,-0.090
17.948,-0.080
17.952,-0.080
17.956,-0.085
17.960,-0.110
17.964,-0.085
17.968,-0.075
17.972,-0.070
17.976,-0.090
17.980,-0.075
17.984,-0.070
17.988,-0.075
17.992,-0.080
17.996,-0.090
18.000,-0.080
18.004,-0.095
18.008,-0.090
18.012,-0.080
18.016,-0.070
18.020,-0.080
18.024,-0.080
18.028,-0.095
18.032,-0.085
18.036,-0.075
18.040,-0.065
18.044,-0.080
18.048,-0.070
18.052,-0.040
18.056,-0.070
18.060,-0.045
18.064,-0.035
18.068,-0.055
18.072,-0.060
18.076,-0.055
18.080,-0.055
18.084,-0.055
18.088,-0.065
18.092,-0.080
18.096,-0.075
18.100,-0.095
18.104,-0.090
18.108,-0.115
18.112,-0.110
18.116,-0.100
18.120,-0.110
18.124,-0.100
18.128,-0.080
18.132,-0.105
18.136,-0.100
18.140,-0.090
18.144,-0.105
18.148,-0.095
18.152,-0.085
18.156,-0.110
18.160,-0.100
18.164,-0.100
18.168,-0.115
18.172,-0.115
18.176,-0.095
18.180,-0.100
18.184,-0.100
18.188,-0.095
18.192,-0.100
18.196,-0.125
18.200,-0.100
18.204,-0.110
18.208,-0.115
18.212,-0.095
18.216,-0.060
18.220,-0.030
18.224,0.045
18.228,0.140
18.232,0.195
18.236,0.260
18.240,0.200
18.244,0.105
18.248,-0.075
18.252,-0.235
18.256,-0.270
18.260,-0.210
18.264,-0.150
18.268,-0.155
18.272,-0.185
18.276,-0.180
18.280,-0.155
18.284,-0.150
18.288,-0.155
18.292,-0.135
18.296,-0.160
18.300,-0.165
18.304,-0.165
18.308,-0.165
18.312,-0.165
18.316,-0.160
18.320,-0.170
18.324,-0.150
18.328,-0.160
18.332,-0.170
18.336,-0.145
18.340,-0.160
18.344,-0.160
18.348,-0.150
18.352,-0.170
18.356,-0.175
18.360,-0.160
18.364,-0.165
18.368,-0.170
18.372,-0.160
18.376,-0.135
18.380,-0.150
18.384,-0.155
18.388,-0.155
18.392,-0.140
18.396,-0.160
18.400,-0.155
18.404,-0.145
18.408,-0.150
18.412,-0.155
18.416,-0.150
18.420,-0.140
18.424,-0.155
18.428,-0.140
18.432,-0.130
18.436,-0.140
18.440,-0.140
18.444,-0.145
18.448,-0.135
18.452,-0.145
18.456,-0.140
18.460,-0.145
18.464,-0.135
18.468,-0.145
18.472,-0.155
18.476,-0.130
18.480,-0.130
18.484,-0.145
18.488,-0.125
18.492,-0.135
18.496,-0.125
18.500,-0.135
18.504,-0.130
18.508,-0.135
18.512,-0.140
18.516,-0.140
18.520,-0.130
18.524,-0.130
18.528,-0.145
18.532,-0.130
18.536,-0.110
18.540,-0.140
18.544,-0.115
18.548,-0.115
18.552,-0.125
18.556,-0.105
18.560,-0.090
18.564,-0.080
18.568,-0.100
18.572,-0.105
18.576,-0.110
18.580,-0.100
18.584,-0.085
18.588,-0.090
18.592,-0.075
18.596,-0.095
18.600,-0.090
18.604,-0.100
18.608,-0.100
18.612,-0.090
18.616,-0.110
18.620,-0.095
18.624,-0.120
18.628,-0.100
18.632,-0.095
18.636,-0.110
18.640,-0.110
18.644,-0.110
18.648,-0.110
18.652,-0.120
18.656,-0.115
18.660,-0.105
18.664,-0.085
18.668,-0.095
18.672,-0.080
18.676,-0.090
18.680,-0.100
18.684,-0.085
18.688,-0.085
18.692,-0.125
18.696,-0.115
18.700,-0.095
18.704,-0.095
18.708,-0.085
18.712,-0.090
18.716,-0.120
18.720,-0.100
18.724,-0.080
18.728,-0.105
18.732,-0.090
18.736,-0.085
18.740,-0.100
18.744,-0.100
18.748,-0.090
18.752,-0.100
18.756,-0.090
18.760,-0.080
18.764,-0.090
18.768,-0.110
18.772,-0.100
18.776,-0.080
18.780,-0.090
18.784,-0.090
18.788,-0.110
18.792,-0.090
18.796,-0.090
18.800,-0.090
18.804,-0.105
18.808,-0.095
18.812,-0.090
18.816,-0.100
18.820,-0.105
18.824,-0.110
18.828,-0.110
18.832,-0.090
18.836,-0.105
18.840,-0.085
18.844,-0.100
18.848,-0.080
18.852,-0.065
18.856,-0.095
18.860,-0.080
18.864,-0.085
18.868,-0.070
18.872,-0.080
18.876,-0.040
18.880,-0.050
18.884,-0.040
18.888,-0.055
18.892,-0.050
18.896,-0.050
18.900,-0.055
18.904,-0.065
18.908,-0.075
18.912,-0.095
18.916,-0.095
18.920,-0.125
18.924,-0.135
18.928,-0.120
18.932,-0.140
18.936,-0.110
18.940,-0.100
18.944,-0.105
18.948,-0.120
18.952,-0.115
18.956,-0.105
18.960,-0.100
18.964,-0.135
18.968,-0.130
18.972,-0.125
18.976,-0.125
18.980,-0.100
18.984,-0.105
18.988,-0.100
18.992,-0.125
18.996,-0.105
19.000,-0.105
19.004,-0.120
19.008,-0.105
19.012,-0.110
19.016,-0.110
19.020,-0.110
19.024,-0.080
19.028,-0.095
19.032,-0.095
19.036,-0.100
19.040,-0.070
19.044,-0.020
19.048,0.040
19.052,0.145
19.056,0.220
19.060,0.240
19.064,0.205
19.068,0.100
19.072,-0.100
19.076,-0.275
19.080,-0.300
19.084,-0.235
19.088,-0.160
19.092,-0.125
19.096,-0.130
19.100,-0.160
19.104,-0.130
19.108,-0.120
19.112,-0.135
19.116,-0.120
19.120,-0.155
19.124,-0.150
19.128,-0.130
19.132,-0.135
19.136,-0.145
19.140,-0.125
19.144,-0.140
19.148,-0.125
19.152,-0.150
19.156,-0.120
19.160,-0.125
19.164,-0.125
19.168,-0.130
19.172,-0.120
19.176,-0.125
19.180,-0.140
19.184,-0.145
19.188,-0.130
19.192,-0.135
19.196,-0.130
19.200,-0.140
19.204,-0.135
19.208,-0.125
19.212,-0.135
19.216,-0.135
19.220,-0.135
19.224,-0.145
19.228,-0.140
19.232,-0.140
19.236,-0.150
19.240,-0.150
19.244,-0.135
19.248,-0.145
19.252,-0.145
19.256,-0.130
19.260,-0.145
19.264,-0.140
19.268,-0.150
19.272,-0.130
19.276,-0.145
19.280,-0.135
19.284,-0.135
19.288,-0.135
19.292,-0.125
19.296,-0.150
19.300,-0.155
19.304,-0.175
19.308,-0.165
19.312,-0.150
19.316,-0.145
19.320,-0.150
19.324,-0.160
19.328,-0.170
19.332,-0.170
19.336,-0.175
19.340,-0.175
19.344,-0.150
19.348,-0.145
19.352,-0.160
19.356,-0.125
19.360,-0.120
19.364,-0.120
19.368,-0.130
19.372,-0.110
19.376,-0.110
19.380,-0.095
19.384,-0.105
19.388,-0.095
19.392,-0.095
19.396,-0.105
19.400,-0.085
19.404,-0.100
19.408,-0.075
19.412,-0.090
19.416,-0.115
19.420,-0.100
19.424,-0.115
19.428,-0.125
19.432,-0.110
19.436,-0.105
19.440,-0.105
19.444,-0.115
19.448,-0.115
19.452,-0.120
19.456,-0.110
19.460,-0.105
19.464,-0.080
19.468,-0.110
19.472,-0.115
19.476,-0.105
19.480,-0.100
19.484,-0.090
19.488,-0.095
19.492,-0.085
19.496,-0.090
19.500,-0.110
19.504,-0.090
19.508,-0.100
19.512,-0.110
19.516,-0.120
19.520,-0.100
19.524,-0.115
19.528,-0.110
19.532,-0.110
19.536,-0.110
19.540,-0.120
19.544,-0.105
19.548,-0.120
19.552,-0.115
19.556,-0.105
19.560,-0.120
19.564,-0.115
19.568,-0.125
19.572,-0.100
19.576,-0.110
19.580,-0.110
19.584,-0.105
19.588,-0.110
19.592,-0.115
19.596,-0.120
19.600,-0.125
19.604,-0.120
19.608,-0.135
19.612,-0.120
19.616,-0.125
19.620,-0.125
19.624,-0.105
19.628,-0.120
19.632,-0.115
19.636,-0.120
19.640,-0.135
19.644,-0.135
19.648,-0.135
19.652,-0.145
19.656,-0.145
19.660,-0.135
19.664,-0.130
19.668,-0.130
19.672,-0.125
19.676,-0.120
19.680,-0.150
19.684,-0.120
19.688,-0.140
19.692,-0.130
19.696,-0.135
19.700,-0.125
19.704,-0.120
19.708,-0.130
19.712,-0.110
19.716,-0.105
19.720,-0.125
19.724,-0.135
19.728,-0.120
19.732,-0.125
19.736,-0.130
19.740,-0.135
19.744,-0.115
19.748,-0.130
19.752,-0.130
19.756,-0.125
19.760,-0.125
19.764,-0.105
19.768,-0.120
19.772,-0.125
19.776,-0.135
19.780,-0.120
19.784,-0.135
19.788,-0.125
19.792,-0.125
19.796,-0.110
19.800,-0.120
19.804,-0.120
19.808,-0.110
19.812,-0.120
19.816,-0.110
19.820,-0.125
19.824,-0.095
19.828,-0.100
19.832,-0.105
19.836,-0.110
19.840,-0.115
19.844,-0.120
19.848,-0.105
19.852,-0.110
19.856,-0.100
19.860,-0.090
19.864,-0.100
19.868,-0.095
19.872,-0.110
19.876,-0.115
19.880,-0.100
19.884,-0.095
19.888,-0.080
19.892,-0.080
19.896,-0.085
19.900,-0.070
19.904,-0.060
19.908,-0.075
19.912,-0.070
19.916,-0.090
19.920,-0.080
19.924,-0.110
19.928,-0.115
19.932,-0.120
19.936,-0.130
19.940,-0.165
19.944,-0.145
19.948,-0.140
19.952,-0.135
19.956,-0.120
19.960,-0.120
19.964,-0.125
19.968,-0.125
19.972,-0.130
19.976,-0.110
19.980,-0.130
19.984,-0.130
19.988,-0.130
19.992,-0.120
19.996,-0.135
20.000,-0.110
20.004,-0.125
20.008,-0.125
20.012,-0.130
20.016,-0.115
20.020,-0.120
20.024,-0.130
20.028,-0.130
20.032,-0.130
20.036,-0.140
20.040,-0.125
20.044,-0.120
20.048,-0.070
20.052,0.000
20.056,0.060
20.060,0.130
20.064,0.195
20.068,0.220
20.072,0.155
20.076,0.070
20.080,-0.085
20.084,-0.235
20.088,-0.320
20.092,-0.305
20.096,-0.220
20.100,-0.200
20.104,-0.200
20.108,-0.190
20.112,-0.185
20.116,-0.170
20.120,-0.155
20.124,-0.160
20.128,-0.160
20.132,-0.160
20.136,-0.155
20.140,-0.130
20.144,-0.140
20.148,-0.160
20.152,-0.165
20.156,-0.165
20.160,-0.160
20.164,-0.175
20.168,-0.150
20.172,-0.180
20.176,-0.180
20.180,-0.155
20.184,-0.160
20.188,-0.175
20.192,-0.155
20.196,-0.155
20.200,-0.150
20.204,-0.150
20.208,-0.145
20.212,-0.165
20.216,-0.155
20.220,-0.155
20.224,-0.140
20.228,-0.150
20.232,-0.140
20.236,-0.135
20.240,-0.155
20.244,-0.155
20.248,-0.160
20.252,-0.150
20.256,-0.150
20.260,-0.150
20.264,-0.160
20.268,-0.150
20.272,-0.140
20.276,-0.155
20.280,-0.155
20.284,-0.155
20.288,-0.160
20.292,-0.160
20.296,-0.150
20.300,-0.160
20.304,-0.160
20.308,-0.175
20.312,-0.160
20.316,-0.155
20.320,-0.150
20.324,-0.175
20.328,-0.165
20.332,-0.180
20.336,-0.180
20.340,-0.160
20.344,-0.160
20.348,-0.155
20.352,-0.170
20.356,-0.155
20.360,-0.165
20.364,-0.150
20.368,-0.160
20.372,-0.145
20.376,-0.130
20.380,-0.130
20.384,-0.120
20.388,-0.110
20.392,-0.100
20.396,-0.120
20.400,-0.115
20.404,-0.130
20.408,-0.120
20.412,-0.140
20.416,-0.140
20.420,-0.140
20.424,-0.130
20.428,-0.135
20.432,-0.150
20.436,-0.150
20.440,-0.140
20.444,-0.160
20.448,-0.140
20.452,-0.110
20.456,-0.135
20.460,-0.115
20.464,-0.120
20.468,-0.125
20.472,-0.140
20.476,-0.130
20.480,-0.130
20.484,-0.110
20.488,-0.105
20.492,-0.130
20.496,-0.120
20.500,-0.120
20.504,-0.135
20.508,-0.120
20.512,-0.120
20.516,-0.135
20.520,-0.130
20.524,-0.100
20.528,-0.120
20.532,-0.105
20.536,-0.110
20.540,-0.135
20.544,-0.130
20.548,-0.120
20.552,-0.130
20.556,-0.110
20.560,-0.125
20.564,-0.085
20.568,-0.115
20.572,-0.105
20.576,-0.120
20.580,-0.130
20.584,-0.135
20.588,-0.115
20.592,-0.130
20.596,-0.125
20.600,-0.140
20.604,-0.130
20.608,-0.140
20.612,-0.130
20.616,-0.120
20.620,-0.135
20.624,-0.145
20.628,-0.130
20.632,-0.130
20.636,-0.135
20.640,-0.125
20.644,-0.135
20.648,-0.130
20.652,-0.140
20.656,-0.130
20.660,-0.135
20.664,-0.120
20.668,-0.120
20.672,-0.130
20.676,-0.125
20.680,-0.120
20.684,-0.100
20.688,-0.100
20.692,-0.085
20.696,-0.085
20.700,-0.080
20.704,-0.075
20.708,-0.100
20.712,-0.105
20.716,-0.105
20.720,-0.120
20.724,-0.115
20.728,-0.135
20.732,-0.140
20.736,-0.160
20.740,-0.140
20.744,-0.145
20.748,-0.145
20.752,-0.125
20.756,-0.140
20.760,-0.125
20.764,-0.110
20.768,-0.120
20.772,-0.115
20.776,-0.135
20.780,-0.125
20.784,-0.125
20.788,-0.125
20.792,-0.125
20.796,-0.120
20.800,-0.135
20.804,-0.130
20.808,-0.125
20.812,-0.120
20.816,-0.105
20.820,-0.115
20.824,-0.110
20.828,-0.110
20.832,-0.120
20.836,-0.115
20.840,-0.105
20.844,-0.110
20.848,-0.090
20.852,-0.080
20.856,-0.015
20.860,0.045
20.864,0.110
20.868,0.180
20.872,0.230
20.876,0.190
20.880,0.115
20.884,-0.010
20.888,-0.160
20.892,-0.270
20.896,-0.270
20.900,-0.205
20.904,-0.150
20.908,-0.165
20.912,-0.170
20.916,-0.125
20.920,-0.140
20.924,-0.135
20.928,-0.150
20.932,-0.145
20.936,-0.160
20.940,-0.135
20.944,-0.160
20.948,-0.140
20.952,-0.155
20.956,-0.140
20.960,-0.130
20.964,-0.140
20.968,-0.140
20.972,-0.160
20.976,-0.135
20.980,-0.150
20.984,-0.150
20.988,-0.130
20.992,-0.140
20.996,-0.140
21.000,-0.135
21.004,-0.125
21.008,-0.140
21.012,-0.160
21.016,-0.165
21.020,-0.135
21.024,-0.140
21.028,-0.140
21.032,-0.135
21.036,-0.150
21.040,-0.155
21.044,-0.155
21.048,-0.145
21.052,-0.145
21.056,-0.155
21.060,-0.155
21.064,-0.145
21.068,-0.150
21.072,-0.145
21.076,-0.150
21.080,-0.150
21.084,-0.140
21.088,-0.130
21.092,-0.140
21.096,-0.140
21.100,-0.125
21.104,-0.155
21.108,-0.140
21.112,-0.145
21.116,-0.135
21.120,-0.155
21.124,-0.150
21.128,-0.150
21.132,-0.155
21.136,-0.150
21.140,-0.145
21.144,-0.145
21.148,-0.150
21.152,-0.160
21.156,-0.140
21.160,-0.120
21.164,-0.130
21.168,-0.140
21.172,-0.115
21.176,-0.115
21.180,-0.105
21.184,-0.100
21.188,-0.095
21.192,-0.090
21.196,-0.100
21.200,-0.105
21.204,-0.100
21.208,-0.110
21.212,-0.110
21.216,-0.105
21.220,-0.110
21.224,-0.095
21.228,-0.110
21.232,-0.105
21.236,-0.110
21.240,-0.115
21.244,-0.105
21.248,-0.095
21.252,-0.115
21.256,-0.115
21.260,-0.115
21.264,-0.115
21.268,-0.120
21.272,-0.120
21.276,-0.105
21.280,-0.115
21.284,-0.120
21.288,-0.115
21.292,-0.105
21.296,-0.120
21.300,-0.120
21.304,-0.105
21.308,-0.120
21.312,-0.110
21.316,-0.120
21.320,-0.125
21.324,-0.125
21.328,-0.115
21.332,-0.130
21.336,-0.130
21.340,-0.125
21.344,-0.125
21.348,-0.110
21.352,-0.130
21.356,-0.145
21.360,-0.135
21.364,-0.140
21.368,-0.120
21.372,-0.130
21.376,-0.125
21.380,-0.135
21.384,-0.120
21.388,-0.125
21.392,-0.130
21.396,-0.125
21.400,-0.130
21.404,-0.135
21.408,-0.135
21.412,-0.110
21.416,-0.130
21.420,-0.140
21.424,-0.125
21.428,-0.130
21.432,-0.125
21.436,-0.140
21.440,-0.125
21.444,-0.135
21.448,-0.145
21.452,-0.135
21.456,-0.135
21.460,-0.135
21.464,-0.125
21.468,-0.105
21.472,-0.120
21.476,-0.130
21.480,-0.130
21.484,-0.120
21.488,-0.120
21.492,-0.120
21.496,-0.130
21.500,-0.130
21.504,-0.135
21.508,-0.125
21.512,-0.110
21.516,-0.135
21.520,-0.145
21.524,-0.140
21.528,-0.130
21.532,-0.140
21.536,-0.145
21.540,-0.145
21.544,-0.140
21.548,-0.135
21.552,-0.140
21.556,-0.140
21.560,-0.135
21.564,-0.140
21.568,-0.130
21.572,-0.135
21.576,-0.140
21.580,-0.125
21.584,-0.145
21.588,-0.135
21.592,-0.140
21.596,-0.145
21.600,-0.140
21.604,-0.135
21.608,-0.125
21.612,-0.130
21.616,-0.145
21.620,-0.140
21.624,-0.140
21.628,-0.145
21.632,-0.135
21.636,-0.135
21.640,-0.125
21.644,-0.120
21.648,-0.130
21.652,-0.135
21.656,-0.125
21.660,-0.130
21.664,-0.130
21.668,-0.105
21.672,-0.130
21.676,-0.120
21.680,-0.120
21.684,-0.125
21.688,-0.130
21.692,-0.120
21.696,-0.120
21.700,-0.120
21.704,-0.100
21.708,-0.095
21.712,-0.110
21.716,-0.075
21.720,-0.065
21.724,-0.100
21.728,-0.085
21.732,-0.115
21.736,-0.120
21.740,-0.125
21.744,-0.120
21.748,-0.135
21.752,-0.145
21.756,-0.140
21.760,-0.160
21.764,-0.145
21.768,-0.135
21.772,-0.125
21.776,-0.130
21.780,-0.125
21.784,-0.125
21.788,-0.125
21.792,-0.135
21.796,-0.120
21.800,-0.130
21.804,-0.145
21.808,-0.140
21.812,-0.135
21.816,-0.135
21.820,-0.120
21.824,-0.125
21.828,-0.120
21.832,-0.115
21.836,-0.120
21.840,-0.120
21.844,-0.115
21.848,-0.115
21.852,-0.095
21.856,-0.050
21.860,0.010
21.864,0.070
21.868,0.160
21.872,0.225
21.876,0.225
21.880,0.150
21.884,0.045
21.888,-0.130
21.892,-0.295
21.896,-0.345
21.900,-0.300
21.904,-0.225
21.908,-0.195
21.912,-0.175
21.916,-0.155
21.920,-0.170
21.924,-0.150
21.928,-0.160
21.932,-0.140
21.936,-0.160
21.940,-0.160
21.944,-0.170
21.948,-0.155
21.952,-0.155
21.956,-0.150
21.960,-0.150
21.964,-0.140
21.968,-0.145
21.972,-0.135
21.976,-0.130
21.980,-0.120
21.984,-0.145
21.988,-0.150
21.992,-0.140
21.996,-0.130
22.000,-0.130
22.004,-0.125
22.008,-0.145
22.012,-0.135
22.016,-0.140
22.020,-0.130
22.024,-0.145
22.028,-0.135
22.032,-0.130
22.036,-0.120
22.040,-0.130
22.044,-0.135
22.048,-0.145
22.052,-0.140
22.056,-0.135
22.060,-0.130
22.064,-0.135
22.068,-0.125
22.072,-0.120
22.076,-0.115
22.080,-0.125
22.084,-0.120
22.088,-0.125
22.092,-0.135
22.096,-0.110
22.100,-0.120
22.104,-0.125
22.108,-0.130
22.112,-0.140
22.116,-0.140
22.120,-0.145
22.124,-0.130
22.128,-0.135
22.132,-0.140
22.136,-0.120
22.140,-0.120
22.144,-0.140
22.148,-0.140
22.152,-0.135
22.156,-0.165
22.160,-0.145
22.164,-0.130
22.168,-0.135
22.172,-0.130
22.176,-0.125
22.180,-0.110
22.184,-0.110
22.188,-0.105
22.192,-0.115
22.196,-0.095
22.200,-0.070
22.204,-0.100
22.208,-0.095
22.212,-0.080
22.216,-0.080
22.220,-0.100
22.224,-0.105
22.228,-0.090
22.232,-0.120
22.236,-0.110
22.240,-0.095
22.244,-0.110
22.248,-0.130
22.252,-0.115
22.256,-0.095
22.260,-0.130
22.264,-0.100
22.268,-0.125
22.272,-0.140
22.276,-0.115
22.280,-0.125
22.284,-0.130
22.288,-0.135
22.292,-0.120
22.296,-0.125
22.300,-0.115
22.304,-0.115
22.308,-0.115
22.312,-0.125
22.316,-0.125
22.320,-0.115
22.324,-0.120
22.328,-0.145
22.332,-0.120
22.336,-0.140
22.340,-0.140
22.344,-0.135
22.348,-0.140
22.352,-0.140
22.356,-0.130
22.360,-0.135
22.364,-0.140
22.368,-0.150
22.372,-0.145
22.376,-0.150
22.380,-0.130
22.384,-0.160
22.388,-0.150
22.392,-0.140
22.396,-0.145
22.400,-0.170
22.404,-0.170
22.408,-0.170
22.412,-0.160
22.416,-0.155
22.420,-0.155
22.424,-0.155
22.428,-0.140
22.432,-0.145
22.436,-0.155
22.440,-0.160
22.444,-0.150
22.448,-0.150
22.452,-0.155
22.456,-0.165
22.460,-0.160
22.464,-0.155
22.468,-0.170
22.472,-0.165
22.476,-0.170
22.480,-0.165
22.484,-0.160
22.488,-0.150
22.492,-0.155
22.496,-0.145
22.500,-0.155
22.504,-0.165
22.508,-0.185
22.512,-0.175
22.516,-0.160
22.520,-0.175
22.524,-0.160
22.528,-0.135
22.532,-0.155
22.536,-0.125
22.540,-0.140
22.544,-0.120
22.548,-0.125
22.552,-0.130
22.556,-0.140
22.560,-0.150
22.564,-0.165
22.568,-0.180
22.572,-0.190
22.576,-0.210
22.580,-0.210
22.584,-0.210
22.588,-0.205
22.592,-0.205
22.596,-0.175
22.600,-0.185
22.604,-0.190
22.608,-0.185
22.612,-0.185
22.616,-0.190
22.620,-0.195
22.624,-0.190
22.628,-0.190
22.632,-0.185
22.636,-0.185
22.640,-0.195
22.644,-0.175
22.648,-0.180
22.652,-0.205
22.656,-0.190
22.660,-0.195
22.664,-0.175
22.668,-0.180
22.672,-0.175
22.676,-0.175
22.680,-0.180
22.684,-0.170
22.688,-0.180
22.692,-0.160
22.696,-0.120
22.700,-0.055
22.704,-0.005
22.708,0.035
22.712,0.110
22.716,0.180
22.720,0.190
22.724,0.120
22.728,-0.010
22.732,-0.210
22.736,-0.340
22.740,-0.345
22.744,-0.240
22.748,-0.205
22.752,-0.225
22.756,-0.200
22.760,-0.175
22.764,-0.210
22.768,-0.190
22.772,-0.185
22.776,-0.195
22.780,-0.185
22.784,-0.175
22.788,-0.185
22.792,-0.200
22.796,-0.185
22.800,-0.190
22.804,-0.205
22.808,-0.195
22.812,-0.175
22.816,-0.175
22.820,-0.185
22.824,-0.175
22.828,-0.190
22.832,-0.170
22.836,-0.155
22.840,-0.170
22.844,-0.170
22.848,-0.180
22.852,-0.160
22.856,-0.160
22.860,-0.165
22.864,-0.180
22.868,-0.190
22.872,-0.160
22.876,-0.165
22.880,-0.150
22.884,-0.160
22.888,-0.155
22.892,-0.150
22.896,-0.175
22.900,-0.150
22.904,-0.165
22.908,-0.160
22.912,-0.160
22.916,-0.175
22.920,-0.150
22.924,-0.160
22.928,-0.165
22.932,-0.165
22.936,-0.170
22.940,-0.150
22.944,-0.160
22.948,-0.160
22.952,-0.150
22.956,-0.165
22.960,-0.160
22.964,-0.145
22.968,-0.160
22.972,-0.180
22.976,-0.185
22.980,-0.185
22.984,-0.170
22.988,-0.200
22.992,-0.190
22.996,-0.180
23.000,-0.170
23.004,-0.175
23.008,-0.175
23.012,-0.155
23.016,-0.175
23.020,-0.180
23.024,-0.175
23.028,-0.150
23.032,-0.140
23.036,-0.140
23.040,-0.130
23.044,-0.135
23.048,-0.130
23.052,-0.135
23.056,-0.145
23.060,-0.130
23.064,-0.145
23.068,-0.140
23.072,-0.145
23.076,-0.140
23.080,-0.135
23.084,-0.155
23.088,-0.175
23.092,-0.160
23.096,-0.145
23.100,-0.150
23.104,-0.160
23.108,-0.160
23.112,-0.150
23.116,-0.140
23.120,-0.165
23.124,-0.165
23.128,-0.150
23.132,-0.160
23.136,-0.160
23.140,-0.160
23.144,-0.145
23.148,-0.155
23.152,-0.150
23.156,-0.150
23.160,-0.145
23.164,-0.155
23.168,-0.155
23.172,-0.160
23.176,-0.140
23.180,-0.140
23.184,-0.155
23.188,-0.170
23.192,-0.155
23.196,-0.160
23.200,-0.175
23.204,-0.160
23.208,-0.170
23.212,-0.160
23.216,-0.145
23.220,-0.165
23.224,-0.165
23.228,-0.175
23.232,-0.160
23.236,-0.155
23.240,-0.170
23.244,-0.175
23.248,-0.175
23.252,-0.170
23.256,-0.175
23.260,-0.170
23.264,-0.185
23.268,-0.170
23.272,-0.185
23.276,-0.185
23.280,-0.180
23.284,-0.185
23.288,-0.210
23.292,-0.195
23.296,-0.190
23.300,-0.195
23.304,-0.205
23.308,-0.180
23.312,-0.180
23.316,-0.175
23.320,-0.190
23.324,-0.200
23.328,-0.205
23.332,-0.215
23.336,-0.205
23.340,-0.200
23.344,-0.215
23.348,-0.220
23.352,-0.225
23.356,-0.200
23.360,-0.195
23.364,-0.200
23.368,-0.185
23.372,-0.210
23.376,-0.195
23.380,-0.205
23.384,-0.190
23.388,-0.200
23.392,-0.200
23.396,-0.185
23.400,-0.215
23.404,-0.205
23.408,-0.190
23.412,-0.180
23.416,-0.200
23.420,-0.200
23.424,-0.200
23.428,-0.200
23.432,-0.195
23.436,-0.190
23.440,-0.205
23.444,-0.195
23.448,-0.195
23.452,-0.200
23.456,-0.205
23.460,-0.190
23.464,-0.210
23.468,-0.190
23.472,-0.200
23.476,-0.210
23.480,-0.215
23.484,-0.185
23.488,-0.195
23.492,-0.190
23.496,-0.180
23.500,-0.190
23.504,-0.215
23.508,-0.205
23.512,-0.200
23.516,-0.200
23.520,-0.180
23.524,-0.185
23.528,-0.180
23.532,-0.160
23.536,-0.165
23.540,-0.160
23.544,-0.190
23.548,-0.175
23.552,-0.200
23.556,-0.200
23.560,-0.200
23.564,-0.210
23.568,-0.225
23.572,-0.220
23.576,-0.230
23.580,-0.250
23.584,-0.235
23.588,-0.225
23.592,-0.205
23.596,-0.205
23.600,-0.190
23.604,-0.220
23.608,-0.205
23.612,-0.200
23.616,-0.220
23.620,-0.210
23.624,-0.205
23.628,-0.205
23.632,-0.210
23.636,-0.200
23.640,-0.215
23.644,-0.205
23.648,-0.195
23.652,-0.200
23.656,-0.210
23.660,-0.200
23.664,-0.200
23.668,-0.195
23.672,-0.160
23.676,-0.105
23.680,-0.040
23.684,0.020
23.688,0.105
23.692,0.145
23.696,0.130
23.700,0.095
23.704,0.020
23.708,-0.090
23.712,-0.240
23.716,-0.335
23.720,-0.285
23.724,-0.210
23.728,-0.220
23.732,-0.240
23.736,-0.245
23.740,-0.230
23.744,-0.235
23.748,-0.235
23.752,-0.250
23.756,-0.230
23.760,-0.235
23.764,-0.235
23.768,-0.250
23.772,-0.245
23.776,-0.225
23.780,-0.220
23.784,-0.225
23.788,-0.235
23.792,-0.240
23.796,-0.230
23.800,-0.225
23.804,-0.220
23.808,-0.235
23.812,-0.205
23.816,-0.215
23.820,-0.220
23.824,-0.230
23.828,-0.225
23.832,-0.225
23.836,-0.240
23.840,-0.225
23.844,-0.220
23.848,-0.215
23.852,-0.225
23.856,-0.220
23.860,-0.195
23.864,-0.225
23.868,-0.215
23.872,-0.230
23.876,-0.210
23.880,-0.215
23.884,-0.220
23.888,-0.220
23.892,-0.195
23.896,-0.200
23.900,-0.210
23.904,-0.220
23.908,-0.235
23.912,-0.220
23.916,-0.230
23.920,-0.210
23.924,-0.230
23.928,-0.220
23.932,-0.220
23.936,-0.210
23.940,-0.210
23.944,-0.235
23.948,-0.240
23.952,-0.230
23.956,-0.215
23.960,-0.225
23.964,-0.235
23.968,-0.220
23.972,-0.215
23.976,-0.230
23.980,-0.230
23.984,-0.225
23.988,-0.250
23.992,-0.240
23.996,-0.215
24.000,-0.230
24.004,-0.205
24.008,-0.200
24.012,-0.200
24.016,-0.205
24.020,-0.190
24.024,-0.185
24.028,-0.180
24.032,-0.195
24.036,-0.200
24.040,-0.190
24.044,-0.200
24.048,-0.210
24.052,-0.225
24.056,-0.220
24.060,-0.215
24.064,-0.215
24.068,-0.220
24.072,-0.210
24.076,-0.220
24.080,-0.215
24.084,-0.225
24.088,-0.210
24.092,-0.235
24.096,-0.210
24.100,-0.225
24.104,-0.225
24.108,-0.225
24.112,-0.235
24.116,-0.210
24.120,-0.210
24.124,-0.240
24.128,-0.235
24.132,-0.220
24.136,-0.210
24.140,-0.230
24.144,-0.200
24.148,-0.225
24.152,-0.225
24.156,-0.220
24.160,-0.230
24.164,-0.240
24.168,-0.230
24.172,-0.235
24.176,-0.220
24.180,-0.225
24.184,-0.240
24.188,-0.235
24.192,-0.225
24.196,-0.230
24.200,-0.245
24.204,-0.255
24.208,-0.235
24.212,-0.245
24.216,-0.250
24.220,-0.250
24.224,-0.250
24.228,-0.275
24.232,-0.250
24.236,-0.245
24.240,-0.255
24.244,-0.245
24.248,-0.240
24.252,-0.275
24.256,-0.270
24.260,-0.270
24.264,-0.270
24.268,-0.280
24.272,-0.260
24.276,-0.275
24.280,-0.275
24.284,-0.280
24.288,-0.285
24.292,-0.285
24.296,-0.265
24.300,-0.280
24.304,-0.290
24.308,-0.275
24.312,-0.275
24.316,-0.275
24.320,-0.290
24.324,-0.270
24.328,-0.295
24.332,-0.295
24.336,-0.275
24.340,-0.260
24.344,-0.240
24.348,-0.250
24.352,-0.250
24.356,-0.250
24.360,-0.275
24.364,-0.285
24.368,-0.295
24.372,-0.295
24.376,-0.310
24.380,-0.330
24.384,-0.335
24.388,-0.340
24.392,-0.350
24.396,-0.320
24.400,-0.300
24.404,-0.315
24.408,-0.330
24.412,-0.315
24.416,-0.310
24.420,-0.310
24.424,-0.325
24.428,-0.315
24.432,-0.300
24.436,-0.320
24.440,-0.325
24.444,-0.305
24.448,-0.285
24.452,-0.310
24.456,-0.300
24.460,-0.305
24.464,-0.320
24.468,-0.340
24.472,-0.325
24.476,-0.320
24.480,-0.315
24.484,-0.320
24.488,-0.300
24.492,-0.275
24.496,-0.240
24.500,-0.185
24.504,-0.125
24.508,-0.060
24.512,0.010
24.516,0.075
24.520,0.085
24.524,0.015
24.528,-0.120
24.532,-0.320
24.536,-0.460
24.540,-0.440
24.544,-0.350
24.548,-0.330
24.552,-0.350
24.556,-0.340
24.560,-0.310
24.564,-0.315
24.568,-0.345
24.572,-0.320
24.576,-0.330
24.580,-0.330
24.584,-0.320
24.588,-0.325
24.592,-0.300
24.596,-0.320
24.600,-0.315
24.604,-0.315
24.608,-0.320
24.612,-0.305
24.616,-0.305
24.620,-0.305
24.624,-0.320
24.628,-0.305
24.632,-0.315
24.636,-0.330
24.640,-0.300
24.644,-0.300
24.648,-0.285
24.652,-0.285
24.656,-0.315
24.660,-0.285
24.664,-0.280
24.668,-0.290
24.672,-0.295
24.676,-0.280
24.680,-0.275
24.684,-0.295
24.688,-0.285
24.692,-0.275
24.696,-0.290
24.700,-0.295
24.704,-0.295
24.708,-0.290
24.712,-0.285
24.716,-0.260
24.720,-0.280
24.724,-0.255
24.728,-0.255
24.732,-0.270
24.736,-0.265
24.740,-0.250
24.744,-0.265
24.748,-0.250
24.752,-0.265
24.756,-0.250
24.760,-0.260
24.764,-0.250
24.768,-0.250
24.772,-0.265
24.776,-0.275
24.780,-0.250
24.784,-0.285
24.788,-0.245
24.792,-0.250
24.796,-0.265
24.800,-0.270
24.804,-0.245
24.808,-0.240
24.812,-0.250
24.816,-0.220
24.820,-0.215
24.824,-0.225
24.828,-0.200
24.832,-0.205
24.836,-0.200
24.840,-0.195
24.844,-0.180
24.848,-0.195
24.852,-0.180
24.856,-0.185
24.860,-0.175
24.864,-0.185
24.868,-0.195
24.872,-0.205
24.876,-0.190
24.880,-0.210
24.884,-0.190
24.888,-0.190
24.892,-0.205
24.896,-0.220
24.900,-0.210
24.904,-0.215
24.908,-0.205
24.912,-0.220
24.916,-0.200
24.920,-0.230
24.924,-0.195
24.928,-0.185
24.932,-0.190
24.936,-0.190
24.940,-0.205
24.944,-0.195
24.948,-0.200
24.952,-0.195
24.956,-0.200
24.960,-0.195
24.964,-0.180
24.968,-0.200
24.972,-0.205
24.976,-0.215
24.980,-0.205
24.984,-0.180
24.988,-0.190
24.992,-0.195
24.996,-0.205
25.000,-0.230
25.004,-0.230
25.008,-0.205
25.012,-0.200
25.016,-0.210
25.020,-0.205
25.024,-0.195
25.028,-0.180
25.032,-0.190
25.036,-0.195
25.040,-0.190
25.044,-0.195
25.048,-0.185
25.052,-0.205
25.056,-0.195
25.060,-0.200
25.064,-0.205
25.068,-0.185
25.072,-0.185
25.076,-0.205
25.080,-0.180
25.084,-0.190
25.088,-0.200
25.092,-0.205
25.096,-0.190
25.100,-0.195
25.104,-0.185
25.108,-0.195
25.112,-0.200
25.116,-0.210
25.120,-0.190
25.124,-0.185
25.128,-0.195
25.132,-0.170
25.136,-0.195
25.140,-0.200
25.144,-0.205
25.148,-0.195
25.152,-0.220
25.156,-0.210
25.160,-0.200
25.164,-0.170
25.168,-0.200
25.172,-0.185
25.176,-0.200
25.180,-0.210
25.184,-0.220
25.188,-0.195
25.192,-0.210
25.196,-0.205
25.200,-0.200
25.204,-0.215
25.208,-0.205
25.212,-0.200
25.216,-0.210
25.220,-0.190
25.224,-0.195
25.228,-0.195
25.232,-0.210
25.236,-0.185
25.240,-0.220
25.244,-0.200
25.248,-0.190
25.252,-0.195
25.256,-0.185
25.260,-0.185
25.264,-0.190
25.268,-0.205
25.272,-0.180
25.276,-0.185
25.280,-0.210
25.284,-0.195
25.288,-0.205
25.292,-0.220
25.296,-0.210
25.300,-0.195
25.304,-0.190
25.308,-0.185
25.312,-0.175
25.316,-0.190
25.320,-0.185
25.324,-0.195
25.328,-0.180
25.332,-0.180
25.336,-0.170
25.340,-0.140
25.344,-0.145
25.348,-0.140
25.352,-0.140
25.356,-0.150
25.360,-0.170
25.364,-0.185
25.368,-0.175
25.372,-0.200
25.376,-0.210
25.380,-0.195
25.384,-0.205
25.388,-0.210
25.392,-0.215
25.396,-0.225
25.400,-0.185
25.404,-0.195
25.408,-0.195
25.412,-0.195
25.416,-0.185
25.420,-0.190
25.424,-0.200
25.428,-0.195
25.432,-0.160
25.436,-0.195
25.440,-0.190
25.444,-0.180
25.448,-0.195
25.452,-0.200
25.456,-0.190
25.460,-0.180
25.464,-0.160
25.468,-0.180
25.472,-0.175
25.476,-0.175
25.480,-0.160
25.484,-0.165
25.488,-0.145
25.492,-0.120
25.496,-0.105
25.500,-0.065
25.504,-0.005
25.508,0.085
25.512,0.195
25.516,0.220
25.520,0.170
25.524,0.040
25.528,-0.160
25.532,-0.345
25.536,-0.370
25.540,-0.285
25.544,-0.215
25.548,-0.205
25.552,-0.200
25.556,-0.170
25.560,-0.175
25.564,-0.165
25.568,-0.195
25.572,-0.180
25.576,-0.165
25.580,-0.170
25.584,-0.195
25.588,-0.185
25.592,-0.180
25.596,-0.180
25.600,-0.200
25.604,-0.185
25.608,-0.165
25.612,-0.190
25.616,-0.190
25.620,-0.160
25.624,-0.185
25.628,-0.185
25.632,-0.160
25.636,-0.165
25.640,-0.165
25.644,-0.165
25.648,-0.180
25.652,-0.170
25.656,-0.170
25.660,-0.200
25.664,-0.160
25.668,-0.175
25.672,-0.165
25.676,-0.170
25.680,-0.170
25.684,-0.165
25.688,-0.170
25.692,-0.165
25.696,-0.155
25.700,-0.160
25.704,-0.145
25.708,-0.175
25.712,-0.165
25.716,-0.155
25.720,-0.150
25.724,-0.160
25.728,-0.160
25.732,-0.160
25.736,-0.160
25.740,-0.150
25.744,-0.140
25.748,-0.140
25.752,-0.135
25.756,-0.130
25.760,-0.160
25.764,-0.145
25.768,-0.130
25.772,-0.135
25.776,-0.140
25.780,-0.140
25.784,-0.155
25.788,-0.140
25.792,-0.135
25.796,-0.135
25.800,-0.140
25.804,-0.135
25.808,-0.120
25.812,-0.155
25.816,-0.130
25.820,-0.115
25.824,-0.110
25.828,-0.090
25.832,-0.080
25.836,-0.085
25.840,-0.085
25.844,-0.090
25.848,-0.075
25.852,-0.090
25.856,-0.080
25.860,-0.080
25.864,-0.065
25.868,-0.090
25.872,-0.095
25.876,-0.080
25.880,-0.095
25.884,-0.080
25.888,-0.110
25.892,-0.095
25.896,-0.095
25.900,-0.100
25.904,-0.090
25.908,-0.075
25.912,-0.085
25.916,-0.105
25.920,-0.105
25.924,-0.105
25.928,-0.090
25.932,-0.070
25.936,-0.100
25.940,-0.095
25.944,-0.105
25.948,-0.090
25.952,-0.090
25.956,-0.100
25.960,-0.080
25.964,-0.085
25.968,-0.100
25.972,-0.080
25.976,-0.105
25.980,-0.110
25.984,-0.090
25.988,-0.100
25.992,-0.080
25.996,-0.075
26.000,-0.085
26.004,-0.080
26.008,-0.085
26.012,-0.105
26.016,-0.090
26.020,-0.100
26.024,-0.110
26.028,-0.095
26.032,-0.105
26.036,-0.105
26.040,-0.105
26.044,-0.090
26.048,-0.090
26.052,-0.080
26.056,-0.095
26.060,-0.090
26.064,-0.105
26.068,-0.100
26.072,-0.100
26.076,-0.115
26.080,-0.120
26.084,-0.105
26.088,-0.110
26.092,-0.120
26.096,-0.095
26.100,-0.075
26.104,-0.115
26.108,-0.090
26.112,-0.100
26.116,-0.115
26.120,-0.115
26.124,-0.110
26.128,-0.110
26.132,-0.095
26.136,-0.105
26.140,-0.080
26.144,-0.080
26.148,-0.070
26.152,-0.070
26.156,-0.070
26.160,-0.075
26.164,-0.075
26.168,-0.075
26.172,-0.080
26.176,-0.085
26.180,-0.090
26.184,-0.105
26.188,-0.095
26.192,-0.135
26.196,-0.125
26.200,-0.130
26.204,-0.130
26.208,-0.120
26.212,-0.115
26.216,-0.135
26.220,-0.110
26.224,-0.120
26.228,-0.135
26.232,-0.155
26.236,-0.150
26.240,-0.120
26.244,-0.125
26.248,-0.115
26.252,-0.140
26.256,-0.140
26.260,-0.115
26.264,-0.140
26.268,-0.150
26.272,-0.150
26.276,-0.140
26.280,-0.160
26.284,-0.155
26.288,-0.130
26.292,-0.115
26.296,-0.140
26.300,-0.115
26.304,-0.105
26.308,-0.085
26.312,-0.035
26.316,0.045
26.320,0.120
26.324,0.190
26.328,0.180
26.332,0.095
26.336,-0.010
26.340,-0.210
26.344,-0.315
26.348,-0.290
26.352,-0.215
26.356,-0.155
26.360,-0.150
26.364,-0.180
26.368,-0.200
26.372,-0.190
26.376,-0.175
26.380,-0.190
26.384,-0.195
26.388,-0.190
26.392,-0.190
26.396,-0.190
26.400,-0.170
26.404,-0.165
26.408,-0.170
26.412,-0.175
26.416,-0.175
26.420,-0.180
26.424,-0.185
26.428,-0.175
26.432,-0.180
26.436,-0.175
26.440,-0.180
26.444,-0.190
26.448,-0.180
26.452,-0.170
26.456,-0.170
26.460,-0.165
26.464,-0.160
26.468,-0.165
26.472,-0.160
26.476,-0.185
26.480,-0.180
26.484,-0.170
26.488,-0.180
26.492,-0.175
26.496,-0.170
26.500,-0.175
26.504,-0.170
26.508,-0.155
26.512,-0.150
26.516,-0.160
26.520,-0.175
26.524,-0.160
26.528,-0.165
26.532,-0.165
26.536,-0.145
26.540,-0.150
26.544,-0.160
26.548,-0.145
26.552,-0.170
26.556,-0.160
26.560,-0.150
26.564,-0.160
26.568,-0.160
26.572,-0.185
26.576,-0.160
26.580,-0.140
26.584,-0.170
26.588,-0.165
26.592,-0.160
26.596,-0.175
26.600,-0.195
26.604,-0.180
26.608,-0.155
26.612,-0.160
26.616,-0.150
26.620,-0.140
26.624,-0.140
26.628,-0.120
26.632,-0.115
26.636,-0.120
26.640,-0.115
26.644,-0.095
26.648,-0.100
26.652,-0.115
26.656,-0.135
26.660,-0.125
26.664,-0.115
26.668,-0.095
26.672,-0.085
26.676,-0.110
26.680,-0.125
26.684,-0.130
26.688,-0.125
26.692,-0.125
26.696,-0.100
26.700,-0.110
26.704,-0.105
26.708,-0.115
26.712,-0.100
26.716,-0.130
26.720,-0.120
26.724,-0.135
26.728,-0.130
26.732,-0.120
26.736,-0.115
26.740,-0.125
26.744,-0.125
26.748,-0.115
26.752,-0.115
26.756,-0.100
26.760,-0.105
26.764,-0.090
26.768,-0.105
26.772,-0.070
26.776,-0.075
26.780,-0.075
26.784,-0.050
26.788,-0.100
26.792,-0.090
26.796,-0.080
26.800,-0.090
26.804,-0.100
26.808,-0.085
26.812,-0.080
26.816,-0.090
26.820,-0.095
26.824,-0.085
26.828,-0.095
26.832,-0.085
26.836,-0.085
26.840,-0.090
26.844,-0.070
26.848,-0.085
26.852,-0.075
26.856,-0.105
26.860,-0.095
26.864,-0.085
26.868,-0.080
26.872,-0.085
26.876,-0.080
26.880,-0.090
26.884,-0.090
26.888,-0.100
26.892,-0.100
26.896,-0.080
26.900,-0.080
26.904,-0.085
26.908,-0.095
26.912,-0.075
26.916,-0.085
26.920,-0.085
26.924,-0.100
26.928,-0.080
26.932,-0.080
26.936,-0.115
26.940,-0.090
26.944,-0.095
26.948,-0.070
26.952,-0.080
26.956,-0.075
26.960,-0.080
26.964,-0.090
26.968,-0.110
26.972,-0.105
26.976,-0.110
26.980,-0.105
26.984,-0.100
26.988,-0.090
26.992,-0.090
26.996,-0.095
27.000,-0.090
27.004,-0.085
27.008,-0.095
27.012,-0.105
27.016,-0.100
27.020,-0.085
27.024,-0.115
27.028,-0.085
27.032,-0.105
27.036,-0.100
27.040,-0.110
27.044,-0.095
27.048,-0.080
27.052,-0.110
27.056,-0.120
27.060,-0.095
27.064,-0.090
27.068,-0.070
27.072,-0.090
27.076,-0.105
27.080,-0.100
27.084,-0.095
27.088,-0.110
27.092,-0.090
27.096,-0.095
27.100,-0.100
27.104,-0.100
27.108,-0.100
27.112,-0.100
27.116,-0.095
27.120,-0.100
27.124,-0.080
27.128,-0.045
27.132,-0.050
27.136,-0.070
27.140,-0.050
27.144,-0.055
27.148,-0.085
27.152,-0.095
27.156,-0.075
27.160,-0.110
27.164,-0.105
27.168,-0.115
27.172,-0.125
27.176,-0.135
27.180,-0.120
27.184,-0.140
27.188,-0.130
27.192,-0.105
27.196,-0.110
27.200,-0.125
27.204,-0.110
27.208,-0.120
27.212,-0.130
27.216,-0.125
27.220,-0.130
27.224,-0.140
27.228,-0.150
27.232,-0.130
27.236,-0.135
27.240,-0.125
27.244,-0.135
27.248,-0.130
27.252,-0.130
27.256,-0.125
27.260,-0.150
27.264,-0.155
27.268,-0.130
27.272,-0.135
27.276,-0.120
27.280,-0.125
27.284,-0.105
27.288,-0.050
27.292,0.025
27.296,0.075
27.300,0.155
27.304,0.225
27.308,0.195
27.312,0.125
27.316,-0.010
27.320,-0.140
27.324,-0.285
27.328,-0.330
27.332,-0.260
27.336,-0.200
27.340,-0.190
27.344,-0.210
27.348,-0.205
27.352,-0.195
27.356,-0.210
27.360,-0.190
27.364,-0.185
27.368,-0.195
27.372,-0.200
27.376,-0.205
27.380,-0.200
27.384,-0.185
27.388,-0.200
27.392,-0.190
27.396,-0.185
27.400,-0.200
27.404,-0.190
27.408,-0.190
27.412,-0.185
27.416,-0.195
27.420,-0.180
27.424,-0.170
27.428,-0.185
27.432,-0.195
27.436,-0.180
27.440,-0.170
27.444,-0.175
27.448,-0.180
27.452,-0.180
27.456,-0.185
27.460,-0.180
27.464,-0.160
27.468,-0.160
27.472,-0.185
27.476,-0.165
27.480,-0.180
27.484,-0.185
27.488,-0.200
27.492,-0.190
27.496,-0.190
27.500,-0.175
27.504,-0.180
27.508,-0.165
27.512,-0.180
27.516,-0.160
27.520,-0.180
27.524,-0.165
27.528,-0.150
27.532,-0.180
27.536,-0.165
27.540,-0.170
27.544,-0.165
27.548,-0.150
27.552,-0.170
27.556,-0.170
27.560,-0.165
27.564,-0.165
27.568,-0.170
27.572,-0.150
27.576,-0.165
27.580,-0.190
27.584,-0.170
27.588,-0.175
27.592,-0.170
27.596,-0.160
27.600,-0.165
27.604,-0.150
27.608,-0.145
27.612,-0.145
27.616,-0.150
27.620,-0.140
27.624,-0.145
27.628,-0.145
27.632,-0.120
27.636,-0.125
27.640,-0.135
27.644,-0.125
27.648,-0.115
27.652,-0.135
27.656,-0.140
27.660,-0.130
27.664,-0.150
27.668,-0.145
27.672,-0.155
27.676,-0.145
27.680,-0.165
27.684,-0.160
27.688,-0.130
27.692,-0.160
27.696,-0.150
27.700,-0.145
27.704,-0.140
27.708,-0.145
27.712,-0.130
27.716,-0.140
27.720,-0.150
27.724,-0.120
27.728,-0.150
27.732,-0.140
27.736,-0.145
27.740,-0.130
27.744,-0.145
27.748,-0.125
27.752,-0.135
27.756,-0.130
27.760,-0.120
27.764,-0.120
27.768,-0.140
27.772,-0.135
27.776,-0.135
27.780,-0.130
27.784,-0.140
27.788,-0.135
27.792,-0.130
27.796,-0.125
27.800,-0.105
27.804,-0.120
27.808,-0.130
27.812,-0.110
27.816,-0.135
27.820,-0.145
27.824,-0.120
27.828,-0.130
27.832,-0.145
27.836,-0.140
27.840,-0.135
27.844,-0.130
27.848,-0.155
27.852,-0.135
27.856,-0.130
27.860,-0.135
27.864,-0.125
27.868,-0.110
27.872,-0.115
27.876,-0.120
27.880,-0.115
27.884,-0.125
27.888,-0.130
27.892,-0.120
27.896,-0.120
27.900,-0.115
27.904,-0.130
27.908,-0.130
27.912,-0.135
27.916,-0.120
27.920,-0.110
27.924,-0.105
27.928,-0.125
27.932,-0.120
27.936,-0.120
27.940,-0.115
27.944,-0.105
27.948,-0.100
27.952,-0.070
27.956,-0.080
27.960,-0.075
27.964,-0.055
27.968,-0.100
27.972,-0.080
27.976,-0.095
27.980,-0.100
27.984,-0.120
27.988,-0.120
27.992,-0.145
27.996,-0.160
28.000,-0.155
28.004,-0.145
28.008,-0.145
28.012,-0.150
28.016,-0.130
28.020,-0.135
28.024,-0.140
28.028,-0.150
28.032,-0.130
28.036,-0.150
28.040,-0.160
28.044,-0.145
28.048,-0.155
28.052,-0.140
28.056,-0.145
28.060,-0.155
28.064,-0.150
28.068,-0.155
28.072,-0.135
28.076,-0.145
28.080,-0.155
28.084,-0.165
28.088,-0.155
28.092,-0.135
28.096,-0.150
28.100,-0.155
28.104,-0.135
28.108,-0.135
28.112,-0.120
28.116,-0.080
28.120,-0.005
28.124,0.060
28.128,0.160
28.132,0.220
28.136,0.195
28.140,0.115
28.144,-0.045
28.148,-0.245
28.152,-0.325
28.156,-0.275
28.160,-0.215
28.164,-0.170
28.168,-0.200
28.172,-0.195
28.176,-0.190
28.180,-0.160
28.184,-0.185
28.188,-0.200
28.192,-0.205
28.196,-0.185
28.200,-0.190
28.204,-0.185
28.208,-0.175
28.212,-0.185
28.216,-0.195
28.220,-0.185
28.224,-0.185
28.228,-0.185
28.232,-0.195
28.236,-0.180
28.240,-0.175
28.244,-0.170
28.248,-0.165
28.252,-0.175
28.256,-0.175
28.260,-0.165
28.264,-0.170
28.268,-0.180
28.272,-0.180
28.276,-0.170
28.280,-0.170
28.284,-0.175
28.288,-0.175
28.292,-0.195
28.296,-0.180
28.300,-0.175
28.304,-0.180
28.308,-0.160
28.312,-0.165
28.316,-0.175
28.320,-0.170
28.324,-0.195
28.328,-0.185
28.332,-0.165
28.336,-0.170
28.340,-0.185
28.344,-0.165
28.348,-0.145
28.352,-0.170
28.356,-0.160
28.360,-0.155
28.364,-0.190
28.368,-0.165
28.372,-0.170
28.376,-0.170
28.380,-0.195
28.384,-0.180
28.388,-0.175
28.392,-0.165
28.396,-0.185
28.400,-0.175
28.404,-0.160
28.408,-0.190
28.412,-0.175
28.416,-0.170
28.420,-0.195
28.424,-0.185
28.428,-0.180
28.432,-0.180
28.436,-0.160
28.440,-0.160
28.444,-0.135
28.448,-0.135
28.452,-0.140
28.456,-0.135
28.460,-0.140
28.464,-0.125
28.468,-0.130
28.472,-0.125
28.476,-0.135
28.480,-0.130
28.484,-0.130
28.488,-0.150
28.492,-0.135
28.496,-0.115
28.500,-0.130
28.504,-0.140
28.508,-0.135
28.512,-0.120
28.516,-0.145
28.520,-0.135
28.524,-0.125
28.528,-0.145
28.532,-0.135
28.536,-0.125
28.540,-0.130
28.544,-0.115
28.548,-0.120
28.552,-0.125
28.556,-0.120
28.560,-0.125
28.564,-0.125
28.568,-0.130
28.572,-0.120
28.576,-0.125
28.580,-0.140
28.584,-0.090
28.588,-0.125
28.592,-0.120
28.596,-0.120
28.600,-0.110
28.604,-0.115
28.608,-0.105
28.612,-0.120
28.616,-0.110
28.620,-0.125
28.624,-0.120
28.628,-0.120
28.632,-0.125
28.636,-0.115
28.640,-0.130
28.644,-0.120
28.648,-0.135
28.652,-0.120
28.656,-0.125
28.660,-0.130
28.664,-0.100
28.668,-0.135
28.672,-0.140
28.676,-0.130
28.680,-0.120
28.684,-0.130
28.688,-0.130
28.692,-0.120
28.696,-0.125
28.700,-0.120
28.704,-0.140
28.708,-0.130
28.712,-0.130
28.716,-0.140
28.720,-0.135
28.724,-0.140
28.728,-0.140
28.732,-0.145
28.736,-0.125
28.740,-0.135
28.744,-0.140
28.748,-0.140
28.752,-0.125
28.756,-0.125
28.760,-0.130
28.764,-0.135
28.768,-0.125
28.772,-0.155
28.776,-0.120
28.780,-0.135
28.784,-0.135
28.788,-0.145
28.792,-0.145
28.796,-0.140
28.800,-0.125
28.804,-0.115
28.808,-0.120
28.812,-0.135
28.816,-0.160
28.820,-0.130
28.824,-0.125
28.828,-0.125
28.832,-0.125
28.836,-0.130
28.840,-0.120
28.844,-0.125
28.848,-0.125
28.852,-0.130
28.856,-0.130
28.860,-0.130
28.864,-0.140
28.868,-0.140
28.872,-0.135
28.876,-0.135
28.880,-0.130
28.884,-0.125
28.888,-0.165
28.892,-0.145
28.896,-0.130
28.900,-0.120
28.904,-0.110
28.908,-0.115
28.912,-0.105
28.916,-0.105
28.920,-0.135
28.924,-0.135
28.928,-0.110
28.932,-0.100
28.936,-0.130
28.940,-0.120
28.944,-0.100
28.948,-0.105
28.952,-0.100
28.956,-0.105
28.960,-0.100
28.964,-0.105
28.968,-0.090
28.972,-0.090
28.976,-0.075
28.980,-0.070
28.984,-0.055
28.988,-0.090
28.992,-0.100
28.996,-0.105
29.000,-0.090
29.004,-0.100
29.008,-0.110
29.012,-0.125
29.016,-0.140
29.020,-0.140
29.024,-0.155
29.028,-0.155
29.032,-0.160
29.036,-0.130
29.040,-0.145
29.044,-0.120
29.048,-0.135
29.052,-0.110
29.056,-0.140
29.060,-0.140
29.064,-0.140
29.068,-0.150
29.072,-0.150
29.076,-0.160
29.080,-0.140
29.084,-0.135
29.088,-0.140
29.092,-0.120
29.096,-0.135
29.100,-0.140
29.104,-0.140
29.108,-0.120
29.112,-0.140
29.116,-0.115
29.120,-0.090
29.124,-0.070
29.128,-0.040
29.132,0.015
29.136,0.085
29.140,0.150
29.144,0.195
29.148,0.185
29.152,0.110
29.156,-0.010
29.160,-0.185
29.164,-0.315
29.168,-0.270
29.172,-0.180
29.176,-0.180
29.180,-0.190
29.184,-0.180
29.188,-0.175
29.192,-0.140
29.196,-0.150
29.200,-0.150
29.204,-0.140
29.208,-0.145
29.212,-0.140
29.216,-0.165
29.220,-0.180
29.224,-0.160
29.228,-0.180
29.232,-0.170
29.236,-0.150
29.240,-0.160
29.244,-0.165
29.248,-0.160
29.252,-0.175
29.256,-0.165
29.260,-0.140
29.264,-0.150
29.268,-0.145
29.272,-0.145
29.276,-0.160
29.280,-0.175
29.284,-0.160
29.288,-0.165
29.292,-0.160
29.296,-0.155
29.300,-0.160
29.304,-0.165
29.308,-0.160
29.312,-0.130
29.316,-0.160
29.320,-0.155
29.324,-0.160
29.328,-0.165
29.332,-0.140
29.336,-0.150
29.340,-0.175
29.344,-0.160
29.348,-0.155
29.352,-0.170
29.356,-0.170
29.360,-0.155
29.364,-0.145
29.368,-0.150
29.372,-0.140
29.376,-0.140
29.380,-0.155
29.384,-0.160
29.388,-0.160
29.392,-0.155
29.396,-0.155
29.400,-0.175
29.404,-0.160
29.408,-0.170
29.412,-0.170
29.416,-0.165
29.420,-0.170
29.424,-0.165
29.428,-0.190
29.432,-0.180
29.436,-0.150
29.440,-0.155
29.444,-0.155
29.448,-0.155
29.452,-0.140
29.456,-0.135
29.460,-0.130
29.464,-0.135
29.468,-0.130
29.472,-0.115
29.476,-0.135
29.480,-0.140
29.484,-0.130
29.488,-0.155
29.492,-0.125
29.496,-0.135
29.500,-0.135
29.504,-0.150
29.508,-0.145
29.512,-0.150
29.516,-0.120
29.520,-0.140
29.524,-0.145
29.528,-0.125
29.532,-0.130
29.536,-0.145
29.540,-0.140
29.544,-0.130
29.548,-0.135
29.552,-0.130
29.556,-0.125
29.560,-0.115
29.564,-0.120
29.568,-0.120
29.572,-0.120
29.576,-0.120
29.580,-0.115
29.584,-0.110
29.588,-0.125
29.592,-0.125
29.596,-0.120
29.600,-0.115
29.604,-0.140
29.608,-0.130
29.612,-0.105
29.616,-0.105
29.620,-0.110
29.624,-0.110
29.628,-0.115
29.632,-0.125
29.636,-0.135
29.640,-0.120
29.644,-0.110
29.648,-0.115
29.652,-0.130
29.656,-0.130
29.660,-0.130
29.664,-0.145
29.668,-0.150
29.672,-0.155
29.676,-0.135
29.680,-0.130
29.684,-0.140
29.688,-0.120
29.692,-0.130
29.696,-0.150
29.700,-0.135
29.704,-0.130
29.708,-0.145
29.712,-0.135
29.716,-0.150
29.720,-0.130
29.724,-0.140
29.728,-0.140
29.732,-0.120
29.736,-0.130
29.740,-0.140
29.744,-0.140
29.748,-0.135
29.752,-0.135
29.756,-0.140
29.760,-0.150
29.764,-0.150
29.768,-0.130
29.772,-0.135
29.776,-0.130
29.780,-0.130
29.784,-0.120
29.788,-0.110
29.792,-0.115
29.796,-0.105
29.800,-0.080
29.804,-0.090
29.808,-0.100
29.812,-0.100
29.816,-0.085
29.820,-0.090
29.824,-0.135
29.828,-0.155
29.832,-0.135
29.836,-0.140
29.840,-0.145
29.844,-0.140
29.848,-0.130
29.852,-0.130
29.856,-0.110
29.860,-0.120
29.864,-0.125
29.868,-0.120
29.872,-0.140
29.876,-0.135
29.880,-0.130
29.884,-0.140
29.888,-0.130
29.892,-0.145
29.896,-0.135
29.900,-0.140
29.904,-0.150
29.908,-0.115
29.912,-0.120
29.916,-0.130
29.920,-0.160
29.924,-0.130
29.928,-0.120
29.932,-0.110
29.936,-0.115
29.940,-0.120
29.944,-0.100
29.948,-0.105
29.952,-0.085
29.956,-0.030
29.960,0.020
29.964,0.040
29.968,0.105
29.972,0.175
29.976,0.225
29.980,0.200
29.984,0.110
29.988,-0.030
29.992,-0.200
29.996,-0.255
30.000,-0.190
30.004,-0.130
30.008,-0.135
30.012,-0.160
30.016,-0.155
30.020,-0.150
30.024,-0.170
30.028,-0.160
30.032,-0.145
30.036,-0.140
30.040,-0.150
30.044,-0.155
30.048,-0.155
30.052,-0.155
30.056,-0.140
30.060,-0.140
30.064,-0.140
30.068,-0.155
30.072,-0.170
30.076,-0.150
30.080,-0.140
30.084,-0.145
30.088,-0.145
30.092,-0.150
30.096,-0.135
30.100,-0.135
30.104,-0.150
30.108,-0.110
30.112,-0.160
30.116,-0.150
30.120,-0.140
30.124,-0.135
30.128,-0.145
30.132,-0.145
30.136,-0.120
30.140,-0.130
30.144,-0.130
30.148,-0.140
30.152,-0.140
30.156,-0.130
30.160,-0.135
30.164,-0.140
30.168,-0.165
30.172,-0.150
30.176,-0.135
30.180,-0.140
30.184,-0.140
30.188,-0.115
30.192,-0.130
30.196,-0.140
30.200,-0.150
30.204,-0.140
30.208,-0.125
30.212,-0.105
30.216,-0.150
30.220,-0.145
30.224,-0.130
30.228,-0.140
30.232,-0.160
30.236,-0.140
30.240,-0.145
30.244,-0.150
30.248,-0.145
30.252,-0.140
30.256,-0.165
30.260,-0.135
30.264,-0.135
30.268,-0.140
30.272,-0.150
30.276,-0.120
30.280,-0.125
30.284,-0.125
30.288,-0.120
30.292,-0.120
30.296,-0.110
30.300,-0.100
30.304,-0.105
30.308,-0.110
30.312,-0.090
30.316,-0.090
30.320,-0.105
30.324,-0.100
30.328,-0.110
30.332,-0.120
30.336,-0.120
30.340,-0.120
30.344,-0.125
30.348,-0.110
30.352,-0.120
30.356,-0.110
30.360,-0.120
30.364,-0.125
30.368,-0.120
30.372,-0.140
30.376,-0.135
30.380,-0.130
30.384,-0.155
30.388,-0.125
30.392,-0.115
30.396,-0.115
30.400,-0.105
30.404,-0.120
30.408,-0.120
30.412,-0.120
30.416,-0.115
30.420,-0.125
30.424,-0.120
30.428,-0.140
30.432,-0.105
30.436,-0.120
30.440,-0.105
30.444,-0.110
30.448,-0.130
30.452,-0.130
30.456,-0.110
30.460,-0.105
30.464,-0.120
30.468,-0.120
30.472,-0.125
30.476,-0.125
30.480,-0.130
30.484,-0.095
30.488,-0.120
30.492,-0.120
30.496,-0.125
30.500,-0.125
30.504,-0.140
30.508,-0.130
30.512,-0.130
30.516,-0.095
30.520,-0.110
30.524,-0.120
30.528,-0.115
30.532,-0.110
30.536,-0.120
30.540,-0.140
30.544,-0.105
30.548,-0.115
30.552,-0.140
30.556,-0.130
30.560,-0.105
30.564,-0.125
30.568,-0.125
30.572,-0.115
30.576,-0.110
30.580,-0.120
30.584,-0.115
30.588,-0.120
30.592,-0.130
30.596,-0.130
30.600,-0.130
30.604,-0.105
30.608,-0.110
30.612,-0.105
30.616,-0.105
30.620,-0.125
30.624,-0.125
30.628,-0.115
30.632,-0.115
30.636,-0.100
30.640,-0.115
30.644,-0.115
30.648,-0.110
30.652,-0.120
30.656,-0.120
30.660,-0.120
30.664,-0.110
30.668,-0.120
30.672,-0.095
30.676,-0.135
30.680,-0.115
30.684,-0.100
30.688,-0.130
30.692,-0.090
30.696,-0.100
30.700,-0.095
30.704,-0.110
30.708,-0.120
30.712,-0.110
30.716,-0.120
30.720,-0.125
30.724,-0.100
30.728,-0.120
30.732,-0.115
30.736,-0.105
30.740,-0.125
30.744,-0.090
30.748,-0.110
30.752,-0.110
30.756,-0.120
30.760,-0.115
30.764,-0.125
30.768,-0.130
30.772,-0.105
30.776,-0.105
30.780,-0.110
30.784,-0.080
30.788,-0.080
30.792,-0.110
30.796,-0.095
30.800,-0.095
30.804,-0.110
30.808,-0.100
30.812,-0.100
30.816,-0.105
30.820,-0.120
30.824,-0.115
30.828,-0.090
30.832,-0.080
30.836,-0.060
30.840,-0.090
30.844,-0.085
30.848,-0.070
30.852,-0.070
30.856,-0.100
30.860,-0.095
30.864,-0.090
30.868,-0.090
30.872,-0.115
30.876,-0.100
30.880,-0.135
30.884,-0.130
30.888,-0.110
30.892,-0.105
30.896,-0.110
30.900,-0.080
30.904,-0.090
30.908,-0.110
30.912,-0.105
30.916,-0.100
30.920,-0.110
30.924,-0.120
30.928,-0.105
30.932,-0.090
30.936,-0.110
30.940,-0.095
30.944,-0.100
30.948,-0.095
30.952,-0.090
30.956,-0.100
30.960,-0.090
30.964,-0.085
30.968,-0.090
30.972,-0.100
30.976,-0.070
30.980,-0.060
30.984,0.000
30.988,0.055
30.992,0.140
30.996,0.240
31.000,0.280
31.004,0.225
31.008,0.140
31.012,-0.060
31.016,-0.225
31.020,-0.270
31.024,-0.220
31.028,-0.150
31.032,-0.140
31.036,-0.170
31.040,-0.140
31.044,-0.125
31.048,-0.115
31.052,-0.130
31.056,-0.120
31.060,-0.140
31.064,-0.125
31.068,-0.130
31.072,-0.140
31.076,-0.120
31.080,-0.125
31.084,-0.135
31.088,-0.120
31.092,-0.115
31.096,-0.110
31.100,-0.120
31.104,-0.120
31.108,-0.120
31.112,-0.120
31.116,-0.120
31.120,-0.120
31.124,-0.125
31.128,-0.105
31.132,-0.110
31.136,-0.100
31.140,-0.105
31.144,-0.115
31.148,-0.125
31.152,-0.115
31.156,-0.140
31.160,-0.140
31.164,-0.115
31.168,-0.115
31.172,-0.130
31.176,-0.125
31.180,-0.120
31.184,-0.110
31.188,-0.120
31.192,-0.105
31.196,-0.100
31.200,-0.135
31.204,-0.110
31.208,-0.110
31.212,-0.095
31.216,-0.110
31.220,-0.105
31.224,-0.110
31.228,-0.100
31.232,-0.105
31.236,-0.120
31.240,-0.105
31.244,-0.135
31.248,-0.120
31.252,-0.115
31.256,-0.105
31.260,-0.135
31.264,-0.125
31.268,-0.110
31.272,-0.120
31.276,-0.120
31.280,-0.110
31.284,-0.115
31.288,-0.100
31.292,-0.110
31.296,-0.105
31.300,-0.110
31.304,-0.090
31.308,-0.095
31.312,-0.075
31.316,-0.080
31.320,-0.080
31.324,-0.095
31.328,-0.075
31.332,-0.070
31.336,-0.085
31.340,-0.095
31.344,-0.080
31.348,-0.105
31.352,-0.105
31.356,-0.095
31.360,-0.095
31.364,-0.120
31.368,-0.095
31.372,-0.120
31.376,-0.105
31.380,-0.105
31.384,-0.105
31.388,-0.090
31.392,-0.100
31.396,-0.095
31.400,-0.100
31.404,-0.105
31.408,-0.090
31.412,-0.085
31.416,-0.100
31.420,-0.110
31.424,-0.100
31.428,-0.115
31.432,-0.105
31.436,-0.100
31.440,-0.085
31.444,-0.095
31.448,-0.120
31.452,-0.120
31.456,-0.105
31.460,-0.105
31.464,-0.100
31.468,-0.110
31.472,-0.105
31.476,-0.105
31.480,-0.120
31.484,-0.110
31.488,-0.125
31.492,-0.100
31.496,-0.100
31.500,-0.105
31.504,-0.100
31.508,-0.100
31.512,-0.105
31.516,-0.125
31.520,-0.125
31.524,-0.135
31.528,-0.120
31.532,-0.110
31.536,-0.105
31.540,-0.110
31.544,-0.130
31.548,-0.115
31.552,-0.135
31.556,-0.125
31.560,-0.090
31.564,-0.120
31.568,-0.115
31.572,-0.115
31.576,-0.095
31.580,-0.100
31.584,-0.120
31.588,-0.125
31.592,-0.110
31.596,-0.125
31.600,-0.120
31.604,-0.110
31.608,-0.120
31.612,-0.120
31.616,-0.110
31.620,-0.085
31.624,-0.110
31.628,-0.115
31.632,-0.115
31.636,-0.115
31.640,-0.110
31.644,-0.105
31.648,-0.110
31.652,-0.120
31.656,-0.115
31.660,-0.105
31.664,-0.110
31.668,-0.110
31.672,-0.110
31.676,-0.090
31.680,-0.085
31.684,-0.080
31.688,-0.065
31.692,-0.075
31.696,-0.055
31.700,-0.075
31.704,-0.065
31.708,-0.080
31.712,-0.085
31.716,-0.080
31.720,-0.100
31.724,-0.120
31.728,-0.150
31.732,-0.140
31.736,-0.130
31.740,-0.125
31.744,-0.120
31.748,-0.115
31.752,-0.130
31.756,-0.120
31.760,-0.120
31.764,-0.080
31.768,-0.130
31.772,-0.120
31.776,-0.115
31.780,-0.120
31.784,-0.145
31.788,-0.130
31.792,-0.120
31.796,-0.115
31.800,-0.100
31.804,-0.095
31.808,-0.120
31.812,-0.105
31.816,-0.100
31.820,-0.115
31.824,-0.115
31.828,-0.100
31.832,-0.110
31.836,-0.110
31.840,-0.100
31.844,-0.060
31.848,-0.025
31.852,0.050
31.856,0.130
31.860,0.230
31.864,0.280
31.868,0.275
31.872,0.230
31.876,0.135
31.880,-0.055
31.884,-0.245
31.888,-0.255
31.892,-0.190
31.896,-0.120
31.900,-0.125
31.904,-0.120
31.908,-0.115
31.912,-0.110
31.916,-0.115
31.920,-0.115
31.924,-0.120
31.928,-0.120
31.932,-0.100
31.936,-0.110
31.940,-0.110
31.944,-0.120
31.948,-0.120
31.952,-0.120
31.956,-0.135
31.960,-0.120
31.964,-0.115
31.968,-0.120
31.972,-0.130
31.976,-0.125
31.980,-0.120
31.984,-0.105
31.988,-0.100
31.992,-0.080
31.996,-0.085
32.000,-0.115
32.004,-0.105
32.008,-0.125
32.012,-0.110
32.016,-0.110
32.020,-0.105
32.024,-0.115
32.028,-0.100
32.032,-0.125
32.036,-0.125
32.040,-0.105
32.044,-0.130
32.048,-0.125
32.052,-0.130
32.056,-0.115
32.060,-0.115
32.064,-0.105
32.068,-0.120
32.072,-0.105
32.076,-0.115
32.080,-0.110
32.084,-0.080
32.088,-0.115
32.092,-0.115
32.096,-0.105
32.100,-0.095
32.104,-0.095
32.108,-0.105
32.112,-0.115
32.116,-0.105
32.120,-0.125
32.124,-0.120
32.128,-0.105
32.132,-0.115
32.136,-0.120
32.140,-0.135
32.144,-0.120
32.148,-0.125
32.152,-0.115
32.156,-0.100
32.160,-0.105
32.164,-0.120
32.168,-0.100
32.172,-0.100
32.176,-0.075
32.180,-0.065
32.184,-0.065
32.188,-0.060
32.192,-0.060
32.196,-0.075
32.200,-0.100
32.204,-0.085
32.208,-0.075
32.212,-0.070
32.216,-0.060
32.220,-0.070
32.224,-0.075
32.228,-0.080
32.232,-0.070
32.236,-0.070
32.240,-0.080
32.244,-0.070
32.248,-0.070
32.252,-0.085
32.256,-0.075
32.260,-0.070
32.264,-0.075
32.268,-0.090
32.272,-0.080
32.276,-0.070
32.280,-0.080
32.284,-0.070
32.288,-0.070
32.292,-0.075
32.296,-0.060
32.300,-0.060
32.304,-0.080
32.308,-0.055
32.312,-0.060
32.316,-0.070
32.320,-0.060
32.324,-0.060
32.328,-0.075
32.332,-0.075
32.336,-0.080
32.340,-0.075
32.344,-0.080
32.348,-0.080
32.352,-0.080
32.356,-0.080
32.360,-0.065
32.364,-0.100
32.368,-0.100
32.372,-0.095
32.376,-0.100
32.380,-0.105
32.384,-0.090
32.388,-0.100
32.392,-0.095
32.396,-0.090
32.400,-0.080
32.404,-0.095
32.408,-0.095
32.412,-0.080
32.416,-0.095
32.420,-0.115
32.424,-0.100
32.428,-0.110
32.432,-0.090
32.436,-0.105
32.440,-0.115
32.444,-0.120
32.448,-0.125
32.452,-0.115
32.456,-0.110
32.460,-0.110
32.464,-0.100
32.468,-0.100
32.472,-0.090
32.476,-0.105
32.480,-0.110
32.484,-0.105
32.488,-0.100
32.492,-0.105
32.496,-0.090
32.500,-0.115
32.504,-0.105
32.508,-0.095
32.512,-0.100
32.516,-0.105
32.520,-0.090
32.524,-0.110
32.528,-0.105
32.532,-0.105
32.536,-0.095
32.540,-0.115
32.544,-0.105
32.548,-0.100
32.552,-0.105
32.556,-0.110
32.560,-0.100
32.564,-0.105
32.568,-0.100
32.572,-0.105
32.576,-0.095
32.580,-0.110
32.584,-0.105
32.588,-0.100
32.592,-0.115
32.596,-0.075
32.600,-0.085
32.604,-0.100
32.608,-0.080
32.612,-0.085
32.616,-0.090
32.620,-0.090
32.624,-0.095
32.628,-0.095
32.632,-0.090
32.636,-0.080
32.640,-0.095
32.644,-0.090
32.648,-0.080
32.652,-0.090
32.656,-0.095
32.660,-0.085
32.664,-0.085
32.668,-0.085
32.672,-0.085
32.676,-0.070
32.680,-0.060
32.684,-0.050
32.688,-0.065
32.692,-0.055
32.696,-0.055
32.700,-0.075
32.704,-0.075
32.708,-0.090
32.712,-0.090
32.716,-0.105
32.720,-0.115
32.724,-0.125
32.728,-0.125
32.732,-0.120
32.736,-0.120
32.740,-0.080
32.744,-0.075
32.748,-0.095
32.752,-0.095
32.756,-0.100
32.760,-0.115
32.764,-0.105
32.768,-0.090
32.772,-0.115
32.776,-0.110
32.780,-0.105
32.784,-0.115
32.788,-0.115
32.792,-0.105
32.796,-0.095
32.800,-0.100
32.804,-0.095
32.808,-0.120
32.812,-0.095
32.816,-0.105
32.820,-0.110
32.824,-0.075
32.828,-0.040
32.832,0.000
32.836,0.095
32.840,0.170
32.844,0.235
32.848,0.235
32.852,0.195
32.856,0.060
32.860,-0.120
32.864,-0.220
32.868,-0.220
32.872,-0.145
32.876,-0.100
32.880,-0.095
32.884,-0.125
32.888,-0.135
32.892,-0.120
32.896,-0.135
32.900,-0.125
32.904,-0.115
32.908,-0.130
32.912,-0.130
32.916,-0.140
32.920,-0.120
32.924,-0.140
32.928,-0.115
32.932,-0.120
32.936,-0.115
32.940,-0.115
32.944,-0.130
32.948,-0.130
32.952,-0.105
32.956,-0.135
32.960,-0.115
32.964,-0.115
32.968,-0.090
32.972,-0.115
32.976,-0.100
32.980,-0.095
32.984,-0.125
32.988,-0.115
32.992,-0.100
32.996,-0.085
33.000,-0.100
33.004,-0.125
33.008,-0.105
33.012,-0.110
33.016,-0.120
33.020,-0.105
33.024,-0.110
33.028,-0.110
33.032,-0.100
33.036,-0.115
33.040,-0.115
33.044,-0.110
33.048,-0.105
33.052,-0.110
33.056,-0.110
33.060,-0.090
33.064,-0.100
33.068,-0.085
33.072,-0.105
33.076,-0.100
33.080,-0.115
33.084,-0.095
33.088,-0.100
33.092,-0.110
33.096,-0.085
33.100,-0.105
33.104,-0.100
33.108,-0.115
33.112,-0.100
33.116,-0.090
33.120,-0.090
33.124,-0.100
33.128,-0.110
33.132,-0.090
33.136,-0.100
33.140,-0.095
33.144,-0.080
33.148,-0.080
33.152,-0.080
33.156,-0.075
33.160,-0.075
33.164,-0.070
33.168,-0.085
33.172,-0.060
33.176,-0.080
33.180,-0.055
33.184,-0.050
33.188,-0.045
33.192,-0.070
33.196,-0.045
33.200,-0.060
33.204,-0.070
33.208,-0.075
33.212,-0.070
33.216,-0.070
33.220,-0.070
33.224,-0.075
33.228,-0.090
33.232,-0.085
33.236,-0.075
33.240,-0.060
33.244,-0.050
33.248,-0.065
33.252,-0.085
33.256,-0.080
33.260,-0.065
33.264,-0.070
33.268,-0.065
33.272,-0.075
33.276,-0.055
33.280,-0.075
33.284,-0.075
33.288,-0.075
33.292,-0.060
33.296,-0.065
33.300,-0.055
33.304,-0.070
33.308,-0.070
33.312,-0.050
33.316,-0.075
33.320,-0.060
33.324,-0.080
33.328,-0.080
33.332,-0.070
33.336,-0.080
33.340,-0.090
33.344,-0.070
33.348,-0.080
33.352,-0.085
33.356,-0.090
33.360,-0.070
33.364,-0.090
33.368,-0.085
33.372,-0.090
33.376,-0.080
33.380,-0.105
33.384,-0.095
33.388,-0.085
33.392,-0.100
33.396,-0.100
33.400,-0.120
33.404,-0.100
33.408,-0.115
33.412,-0.120
33.416,-0.110
33.420,-0.120
33.424,-0.120
33.428,-0.105
33.432,-0.105
33.436,-0.120
33.440,-0.130
33.444,-0.125
33.448,-0.130
33.452,-0.110
33.456,-0.110
33.460,-0.115
33.464,-0.140
33.468,-0.140
33.472,-0.125
33.476,-0.115
33.480,-0.115
33.484,-0.105
33.488,-0.120
33.492,-0.105
33.496,-0.130
33.500,-0.115
33.504,-0.110
33.508,-0.105
33.512,-0.130
33.516,-0.115
33.520,-0.110
33.524,-0.110
33.528,-0.115
33.532,-0.110
33.536,-0.070
33.540,-0.080
33.544,-0.060
33.548,-0.080
33.552,-0.055
33.556,-0.070
33.560,-0.080
33.564,-0.075
33.568,-0.095
33.572,-0.125
33.576,-0.110
33.580,-0.095
33.584,-0.120
33.588,-0.120
33.592,-0.130
33.596,-0.115
33.600,-0.115
33.604,-0.115
33.608,-0.110
33.612,-0.120
33.616,-0.115
33.620,-0.115
33.624,-0.095
33.628,-0.110
33.632,-0.105
33.636,-0.115
33.640,-0.115
33.644,-0.115
33.648,-0.125
33.652,-0.105
33.656,-0.100
33.660,-0.100
33.664,-0.110
33.668,-0.110
33.672,-0.085
33.676,-0.080
33.680,-0.095
33.684,-0.100
33.688,-0.105
33.692,-0.075
33.696,-0.045
33.700,0.000
33.704,0.070
33.708,0.110
33.712,0.180
33.716,0.250
33.720,0.290
33.724,0.220
33.728,0.080
33.732,-0.105
33.736,-0.270
33.740,-0.255
33.744,-0.170
33.748,-0.120
33.752,-0.135
33.756,-0.130
33.760,-0.120
33.764,-0.130
33.768,-0.115
33.772,-0.130
33.776,-0.125
33.780,-0.100
33.784,-0.110
33.788,-0.115
33.792,-0.080
33.796,-0.105
33.800,-0.115
33.804,-0.110
33.808,-0.095
33.812,-0.125
33.816,-0.095
33.820,-0.115
33.824,-0.110
33.828,-0.110
33.832,-0.110
33.836,-0.100
33.840,-0.095
33.844,-0.090
33.848,-0.095
33.852,-0.095
33.856,-0.085
33.860,-0.085
33.864,-0.080
33.868,-0.090
33.872,-0.075
33.876,-0.080
33.880,-0.080
33.884,-0.080
33.888,-0.085
33.892,-0.080
33.896,-0.080
33.900,-0.105
33.904,-0.080
33.908,-0.075
33.912,-0.080
33.916,-0.055
33.920,-0.055
33.924,-0.055
33.928,-0.060
33.932,-0.070
33.936,-0.075
33.940,-0.055
33.944,-0.050
33.948,-0.065
33.952,-0.055
33.956,-0.070
33.960,-0.065
33.964,-0.065
33.968,-0.055
33.972,-0.080
33.976,-0.065
33.980,-0.070
33.984,-0.065
33.988,-0.080
33.992,-0.080
33.996,-0.070
34.000,-0.060
34.004,-0.055
34.008,-0.080
34.012,-0.060
34.016,-0.045
34.020,-0.055
34.024,-0.045
34.028,-0.045
34.032,-0.030
34.036,-0.040
34.040,-0.025
34.044,-0.020
34.048,-0.030
34.052,-0.030
34.056,-0.020
34.060,-0.025
34.064,-0.020
34.068,-0.025
34.072,-0.030
34.076,-0.030
34.080,-0.020
34.084,-0.035
34.088,-0.050
34.092,-0.045
34.096,-0.050
34.100,-0.050
34.104,-0.030
34.108,-0.045
34.112,-0.055
34.116,-0.040
34.120,-0.040
34.124,-0.045
34.128,-0.035
34.132,-0.035
34.136,-0.035
34.140,-0.055
34.144,-0.045
34.148,-0.040
34.152,-0.040
34.156,-0.025
34.160,-0.015
34.164,-0.015
34.168,-0.010
34.172,0.000
34.176,0.030
34.180,0.035
34.184,0.030
34.188,0.030
34.192,0.035
34.196,0.015
34.200,0.015
34.204,0.000
34.208,-0.005
34.212,-0.015
34.216,-0.010
34.220,-0.030
34.224,-0.035
34.228,-0.050
34.232,-0.055
34.236,-0.060
34.240,-0.085
34.244,-0.110
34.248,-0.090
34.252,-0.065
34.256,-0.070
34.260,-0.090
34.264,-0.075
34.268,-0.085
34.272,-0.085
34.276,-0.095
34.280,-0.080
34.284,-0.105
34.288,-0.090
34.292,-0.100
34.296,-0.105
34.300,-0.090
34.304,-0.080
34.308,-0.075
34.312,-0.080
34.316,-0.080
34.320,-0.085
34.324,-0.095
34.328,-0.065
34.332,-0.085
34.336,-0.080
34.340,-0.040
34.344,0.015
34.348,0.090
34.352,0.165
34.356,0.245
34.360,0.280
34.364,0.270
34.368,0.225
34.372,0.135
34.376,0.010
34.380,-0.185
34.384,-0.280
34.388,-0.210
34.392,-0.125
34.396,-0.135
34.400,-0.135
34.404,-0.140
34.408,-0.120
34.412,-0.145
34.416,-0.125
34.420,-0.135
34.424,-0.120
34.428,-0.130
34.432,-0.135
34.436,-0.145
34.440,-0.130
34.444,-0.115
34.448,-0.135
34.452,-0.145
34.456,-0.130
34.460,-0.125
34.464,-0.130
34.468,-0.140
34.472,-0.135
34.476,-0.110
34.480,-0.110
34.484,-0.115
34.488,-0.135
34.492,-0.140
34.496,-0.145
34.500,-0.130
34.504,-0.145
34.508,-0.130
34.512,-0.120
34.516,-0.115
34.520,-0.110
34.524,-0.110
34.528,-0.105
34.532,-0.120
34.536,-0.130
34.540,-0.135
34.544,-0.120
34.548,-0.125
34.552,-0.100
34.556,-0.105
34.560,-0.095
34.564,-0.110
34.568,-0.115
34.572,-0.110
34.576,-0.105
34.580,-0.100
34.584,-0.120
34.588,-0.100
34.592,-0.095
34.596,-0.085
34.600,-0.100
34.604,-0.125
34.608,-0.120
34.612,-0.105
34.616,-0.110
34.620,-0.105
34.624,-0.115
34.628,-0.125
34.632,-0.125
34.636,-0.125
34.640,-0.105
34.644,-0.085
34.648,-0.110
34.652,-0.095
34.656,-0.095
34.660,-0.070
34.664,-0.065
34.668,-0.055
34.672,-0.075
34.676,-0.065
34.680,-0.060
34.684,-0.040
34.688,-0.050
34.692,-0.055
34.696,-0.060
34.700,-0.060
34.704,-0.045
34.708,-0.035
34.712,-0.060
34.716,-0.050
34.720,-0.040
34.724,-0.035
34.728,-0.040
34.732,-0.035
34.736,-0.035
34.740,-0.025
34.744,0.005
34.748,0.030
34.752,0.010
34.756,0.020
34.760,0.035
34.764,0.030
34.768,0.005
34.772,0.015
34.776,0.000
34.780,0.005
34.784,-0.020
34.788,-0.020
34.792,-0.040
34.796,-0.030
34.800,-0.040
34.804,-0.030
34.808,-0.055
34.812,-0.045
34.816,-0.050
34.820,-0.055
34.824,-0.060
34.828,-0.090
34.832,-0.085
34.836,-0.065
34.840,-0.055
34.844,-0.055
34.848,-0.065
34.852,-0.070
34.856,-0.070
34.860,-0.055
34.864,-0.060
34.868,-0.075
34.872,-0.055
34.876,-0.060
34.880,-0.065
34.884,-0.055
34.888,-0.060
34.892,-0.055
34.896,-0.060
34.900,-0.055
34.904,-0.060
34.908,-0.065
34.912,-0.050
34.916,-0.040
34.920,-0.040
34.924,-0.020
34.928,-0.030
34.932,0.000
34.936,0.035
34.940,0.135
34.944,0.215
34.948,0.280
34.952,0.300
34.956,0.290
34.960,0.195
34.964,0.000
34.968,-0.200
34.972,-0.245
34.976,-0.205
34.980,-0.120
34.984,-0.070
34.988,-0.065
34.992,-0.095
34.996,-0.060
35.000,-0.090
35.004,-0.095
35.008,-0.095
35.012,-0.090
35.016,-0.095
35.020,-0.075
35.024,-0.085
35.028,-0.085
35.032,-0.080
35.036,-0.080
35.040,-0.080
35.044,-0.080
35.048,-0.065
35.052,-0.085
35.056,-0.085
35.060,-0.075
35.064,-0.065
35.068,-0.070
35.072,-0.080
35.076,-0.065
35.080,-0.085
35.084,-0.090
35.088,-0.075
35.092,-0.065
35.096,-0.080
35.100,-0.070
35.104,-0.080
35.108,-0.055
35.112,-0.075
35.116,-0.070
35.120,-0.060
35.124,-0.060
35.128,-0.080
35.132,-0.060
35.136,-0.050
35.140,-0.070
35.144,-0.055
35.148,-0.055
35.152,-0.055
35.156,-0.075
35.160,-0.040
35.164,-0.055
35.168,-0.035
35.172,-0.055
35.176,-0.050
35.180,-0.060
35.184,-0.080
35.188,-0.070
35.192,-0.075
35.196,-0.075
35.200,-0.045
35.204,-0.065
35.208,-0.055
35.212,-0.065
35.216,-0.065
35.220,-0.060
35.224,-0.065
35.228,-0.070
35.232,-0.070
35.236,-0.065
35.240,-0.040
35.244,-0.025
35.248,-0.020
35.252,-0.035
35.256,0.000
35.260,-0.010
35.264,0.000
35.268,-0.005
35.272,-0.005
35.276,-0.015
35.280,-0.015
35.284,-0.005
35.288,-0.010
35.292,-0.010
35.296,0.000
35.300,-0.005
35.304,0.000
35.308,-0.015
